* Measurement data measured by REW V5.19
* Source: Mic in at front panel (Pink) (Realtek(R) Audio), no input selected, L, volume: no control
* Format: 256k Log Swept Sine, 1 sweep at -12.0 dBFS  With no timing reference
* Dated: Jun 25, 2021 10:37:20 AM
* REW Settings:
*  C-weighting compensation: Off
*  Target level: 75.0 dB
* Note: Audiosense T100
* Measurement: Jun 25 10:37:20
* Smoothing: None
* Frequency Step: 1/48 octave
* Start Frequency: 20.3 Hz
*
* Freq(Hz)	SPL(dB)	Phase(degrees)
20.291	79.389	15.472
20.586	79.398	14.917
20.885	79.408	14.410
21.189	79.390	13.885
21.497	79.371	13.336
21.810	79.362	12.772
22.127	79.350	12.200
22.449	79.328	11.626
22.776	79.311	11.044
23.107	79.304	10.443
23.443	79.293	9.811
23.784	79.284	9.150
24.130	79.278	8.473
24.481	79.276	7.800
24.837	79.270	7.144
25.198	79.254	6.504
25.565	79.250	5.867
25.937	79.256	5.221
26.314	79.257	4.570
26.697	79.262	3.929
27.085	79.256	3.314
27.479	79.234	2.724
27.879	79.223	2.144
28.284	79.199	1.566
28.696	79.176	1.001
29.113	79.160	0.470
29.537	79.134	-0.027
29.966	79.110	-0.527
30.402	79.083	-1.068
30.844	79.058	-1.645
31.293	79.039	-2.217
31.748	79.015	-2.754
32.210	78.994	-3.290
32.678	78.956	-3.879
33.154	78.929	-4.515
33.636	78.909	-5.122
34.125	78.884	-5.663
34.621	78.875	-6.199
35.125	78.871	-6.810
35.636	78.856	-7.461
36.154	78.840	-8.055
36.680	78.831	-8.588
37.214	78.821	-9.160
37.755	78.783	-9.779
38.304	78.716	-10.306
38.861	78.662	-10.679
39.427	78.615	-11.072
40.000	78.574	-11.665
40.582	78.545	-12.389
41.172	78.495	-13.057
41.771	78.437	-13.637
42.379	78.390	-14.191
42.995	78.361	-14.731
43.620	78.343	-15.265
44.255	78.318	-15.834
44.898	78.277	-16.417
45.552	78.228	-16.950
46.214	78.188	-17.433
46.886	78.149	-17.918
47.568	78.099	-18.430
48.260	78.042	-18.934
48.962	77.972	-19.374
49.674	77.908	-19.839
50.397	77.863	-20.430
51.130	77.808	-20.957
51.874	77.769	-21.308
52.628	77.747	-21.769
53.394	77.680	-22.359
54.170	77.600	-22.749
54.958	77.564	-23.017
55.758	77.542	-23.436
56.569	77.508	-23.991
57.391	77.454	-24.565
58.226	77.384	-25.073
59.073	77.323	-25.564
59.932	77.268	-26.104
60.804	77.194	-26.609
61.688	77.116	-27.006
62.586	77.070	-27.446
63.496	77.012	-28.097
64.420	76.915	-28.515
65.357	76.858	-28.800
66.307	76.791	-29.411
67.272	76.711	-29.824
68.250	76.655	-30.244
69.243	76.581	-30.473
70.250	76.546	-30.785
71.272	76.443	-31.053
72.309	76.441	-31.133
73.360	76.360	-32.398
74.427	76.185	-32.469
75.510	76.172	-32.872
76.608	76.058	-33.408
77.723	76.046	-34.253
78.853	75.830	-34.995
80.000	75.811	-34.337
81.164	75.818	-35.048
82.344	75.748	-35.254
83.542	75.679	-35.726
84.757	75.601	-36.016
85.990	75.494	-36.552
87.241	75.393	-36.646
88.510	75.322	-37.228
89.797	75.197	-37.048
91.103	75.219	-37.734
92.428	75.008	-38.196
93.773	74.939	-38.189
95.137	74.832	-38.604
96.520	74.746	-38.958
97.924	74.690	-39.169
99.349	74.613	-39.532
100.794	74.498	-39.679
102.260	74.374	-39.753
103.747	74.269	-39.875
105.256	74.187	-40.224
106.787	74.124	-40.580
108.340	74.094	-40.841
109.916	73.999	-40.990
111.515	73.838	-40.856
113.137	73.696	-41.300
114.783	73.631	-42.081
116.452	73.552	-42.189
118.146	73.391	-42.196
119.865	74.376	-45.142
121.608	73.104	-42.900
123.377	73.184	-42.570
125.171	73.085	-42.268
126.992	72.937	-42.301
128.839	72.860	-42.848
130.713	72.845	-42.630
132.615	72.540	-43.142
134.543	72.606	-43.020
136.500	72.314	-43.509
138.486	72.320	-43.177
140.500	72.201	-42.382
142.544	72.026	-42.431
144.617	71.685	-44.993
146.721	71.805	-41.356
148.855	71.559	-40.668
151.020	71.778	-41.227
153.217	71.210	-44.811
155.445	71.612	-43.490
157.706	71.775	-42.030
160.000	71.593	-42.371
162.327	71.447	-42.427
164.688	71.376	-42.242
167.084	71.311	-42.896
169.514	71.244	-43.083
171.980	70.985	-43.480
174.481	70.903	-42.825
177.019	70.741	-42.859
179.594	70.589	-42.635
182.206	70.515	-42.331
184.856	70.508	-42.609
187.545	70.471	-42.742
190.273	70.446	-42.877
193.041	70.389	-42.822
195.849	70.370	-43.158
198.697	70.177	-42.656
201.587	70.107	-43.114
204.520	70.017	-42.862
207.494	69.998	-42.889
210.512	69.855	-42.784
213.574	69.736	-42.984
216.681	69.629	-43.019
219.833	69.408	-42.907
223.030	69.371	-42.755
226.274	69.318	-42.573
229.565	69.207	-42.344
232.905	69.084	-42.370
236.292	68.901	-43.045
239.729	68.891	-42.166
243.216	68.789	-42.051
246.754	68.678	-41.949
250.343	68.555	-41.783
253.984	68.430	-41.553
257.678	68.333	-40.880
261.426	68.288	-40.742
265.229	68.197	-40.715
269.087	68.086	-40.579
273.001	67.961	-40.293
276.972	67.869	-39.975
281.000	67.761	-39.664
285.088	67.671	-39.300
289.234	67.625	-38.844
293.441	67.576	-38.898
297.710	67.456	-38.880
302.040	67.343	-38.627
306.433	67.255	-38.436
310.890	67.186	-38.019
315.412	67.071	-37.605
320.000	66.947	-37.602
324.655	66.839	-37.194
329.377	66.751	-36.772
334.168	66.654	-36.400
339.028	66.564	-35.986
343.959	66.456	-35.742
348.962	66.335	-35.361
354.038	66.250	-34.924
359.188	66.164	-34.460
364.412	66.053	-34.041
369.713	65.942	-33.623
375.090	65.821	-33.093
380.546	65.713	-32.549
386.081	65.602	-31.996
391.697	65.479	-31.348
397.395	65.367	-30.468
403.175	65.230	-29.555
409.039	65.128	-28.360
414.989	65.048	-26.919
421.025	65.071	-25.196
427.149	65.208	-24.022
433.362	65.405	-23.645
439.665	65.467	-24.179
446.060	65.432	-24.538
452.548	65.362	-24.558
459.131	65.346	-24.777
465.809	65.192	-24.839
472.584	65.081	-24.552
479.458	64.976	-24.033
486.432	64.914	-23.564
493.507	64.772	-23.477
500.686	64.673	-22.584
507.968	64.610	-21.926
515.357	64.534	-21.402
522.853	64.460	-20.847
530.458	64.328	-20.305
538.174	64.291	-19.332
546.002	64.206	-18.868
553.943	64.138	-17.999
562.001	64.082	-17.222
570.175	64.025	-16.609
578.469	63.941	-15.898
586.883	63.913	-15.047
595.419	63.788	-14.372
604.080	63.745	-13.394
612.866	63.706	-12.511
621.780	63.676	-11.848
630.824	63.544	-11.013
640.000	63.575	-9.778
649.309	63.496	-8.949
658.753	63.438	-7.846
668.335	63.507	-6.702
678.056	63.485	-6.113
687.919	63.454	-5.168
697.925	63.415	-4.476
708.076	63.375	-3.384
718.376	63.371	-2.428
728.825	63.347	-1.447
739.426	63.338	-0.445
750.181	63.322	0.598
761.093	63.314	1.670
772.163	63.313	2.740
783.394	63.321	3.955
794.789	63.337	4.895
806.349	63.333	6.233
818.078	63.390	7.376
829.977	63.445	8.955
842.050	63.545	9.387
854.297	63.564	10.383
866.724	63.648	11.106
879.330	63.639	12.487
892.120	63.737	13.538
905.097	63.785	14.255
918.262	63.896	15.478
931.618	63.960	16.574
945.169	64.098	17.494
958.917	64.202	18.431
972.864	64.306	19.020
987.015	64.474	19.841
1001.371	64.672	19.920
1015.937	64.853	20.360
1030.714	65.024	19.514
1045.706	65.192	17.398
1060.916	64.604	13.764
1076.347	63.625	17.296
1092.003	63.654	23.656
1107.887	64.002	26.856
1124.001	64.348	28.505
1140.350	64.622	29.595
1156.937	64.832	30.529
1173.765	65.047	31.084
1190.838	65.210	31.934
1208.159	65.451	33.108
1225.732	65.639	33.017
1243.561	65.838	33.230
1261.649	65.959	33.978
1280.000	66.097	34.037
1298.618	66.224	34.695
1317.507	66.371	35.374
1336.670	66.512	35.905
1356.113	66.639	36.211
1375.838	66.818	36.545
1395.850	66.896	37.147
1416.153	67.004	38.468
1436.751	67.227	38.841
1457.649	67.410	39.136
1478.851	67.603	39.697
1500.362	67.806	40.182
1522.185	68.024	40.671
1544.326	68.276	41.220
1566.789	68.505	41.794
1589.578	68.837	42.787
1612.699	69.095	43.472
1636.156	69.192	43.475
1659.955	69.177	43.717
1684.099	69.134	44.147
1708.595	69.153	44.644
1733.447	69.245	44.871
1758.661	69.396	44.982
1784.241	69.618	45.186
1810.193	69.938	46.220
1836.523	70.246	46.363
1863.236	70.568	46.541
1890.338	70.887	46.513
1917.833	71.212	46.514
1945.729	71.492	46.210
1974.030	71.867	46.569
2002.743	72.213	46.084
2031.873	72.575	45.471
2061.428	72.880	44.945
2091.412	73.261	44.308
2121.832	73.566	43.474
2152.695	73.867	41.989
2184.007	74.116	41.255
2215.774	74.467	40.140
2248.003	74.822	38.602
2280.701	75.140	36.642
2313.874	75.435	34.341
2347.530	75.659	32.471
2381.676	75.870	29.846
2416.318	76.056	27.372
2451.464	76.183	24.483
2487.122	76.229	21.767
2523.298	76.284	18.937
2560.000	76.159	16.327
2597.236	76.096	14.202
2635.014	75.987	12.041
2673.341	75.854	10.138
2712.226	75.608	8.386
2751.676	75.471	7.268
2791.700	75.297	6.403
2832.306	75.130	5.227
2873.503	74.981	4.783
2915.299	74.818	3.197
2957.703	74.632	3.050
3000.724	74.434	2.918
3044.370	74.261	2.902
3088.652	74.077	2.702
3133.577	73.963	3.257
3179.156	73.917	3.887
3225.398	73.866	4.396
3272.312	73.882	5.035
3319.909	73.828	5.155
3368.198	73.831	5.830
3417.190	73.858	6.598
3466.894	73.885	7.022
3517.321	73.900	8.070
3568.482	73.973	9.306
3620.387	74.080	10.417
3673.046	74.349	11.217
3726.472	74.532	11.982
3780.675	74.799	12.742
3835.666	75.155	13.034
3891.457	75.499	13.452
3948.060	75.910	14.178
4005.486	76.440	14.719
4063.747	77.106	13.993
4122.855	77.716	13.358
4182.824	78.440	12.210
4243.664	79.222	9.271
4305.390	80.010	5.687
4368.013	80.834	-0.284
4431.547	81.617	-7.760
4496.005	82.070	-18.773
4561.401	82.005	-30.865
4627.749	81.435	-43.265
4695.061	80.288	-53.555
4763.352	78.913	-60.740
4832.637	77.576	-65.170
4902.929	76.237	-68.272
4974.244	75.016	-69.621
5046.596	73.883	-70.540
5120.000	72.851	-70.297
5194.472	71.824	-68.819
5270.027	70.917	-67.388
5346.682	70.070	-65.206
5424.451	69.314	-63.319
5503.352	68.533	-61.029
5583.399	67.749	-57.782
5664.612	67.074	-54.751
5747.006	66.419	-51.207
5830.598	65.890	-47.594
5915.406	65.407	-44.490
6001.447	65.014	-41.000
6088.740	64.558	-37.521
6177.303	64.240	-33.971
6267.154	63.960	-30.267
6358.312	63.614	-26.476
6450.796	63.375	-22.688
6544.625	63.203	-18.190
6639.818	63.107	-14.077
6736.397	62.976	-10.130
6834.380	62.937	-6.123
6933.789	62.962	-1.688
7034.643	63.087	2.417
7136.964	63.180	6.713
7240.773	63.336	10.861
7346.093	63.600	15.316
7452.944	64.020	19.223
7561.350	64.516	23.285
7671.332	65.011	26.739
7782.915	65.794	30.157
7896.120	66.599	32.413
8010.971	67.662	33.340
8127.493	68.809	33.462
8245.711	70.367	30.085
8365.647	71.964	21.760
8487.328	73.018	6.501
8610.779	72.799	-11.712
8736.026	71.270	-26.416
8863.095	69.237	-34.851
8992.011	67.273	-37.205
9122.803	65.600	-36.466
9255.497	64.178	-34.790
9390.121	62.914	-31.191
9526.704	61.880	-26.606
9665.273	60.943	-22.472
9805.857	60.176	-17.401
9948.487	59.509	-11.218
10093.191	58.987	-5.781
10240.000	58.565	0.528
10388.944	58.418	7.140
10540.055	58.261	13.422
10693.363	58.263	19.691
10848.902	58.410	25.648
11006.703	58.705	31.559
11166.799	59.403	38.187
11329.224	60.341	42.981
11494.012	61.516	47.116
11661.195	63.364	48.312
11830.812	65.823	43.317
12002.895	68.423	24.755
12177.480	68.129	-9.031
12354.606	64.658	-29.075
12534.309	61.231	-34.363
12716.624	58.353	-32.144
12901.592	56.130	-27.482
13089.250	54.128	-21.005
13279.637	52.593	-13.499
13472.794	51.210	-5.612
13668.760	49.958	3.006
13867.577	48.684	11.453
14069.285	47.608	21.044
14273.928	46.965	29.884
14481.547	46.375	39.662
14692.186	46.168	48.576
14905.889	46.019	58.878
15122.700	46.042	68.141
15342.664	46.137	78.025
15565.829	46.310	88.088
15792.239	46.396	97.859
16021.942	46.711	106.319
16254.986	47.553	114.433
16491.422	48.997	119.722
16731.295	52.006	120.422
16974.656	54.683	104.953
17221.559	54.493	73.270
17472.053	50.899	56.860
17726.189	47.311	55.564
17984.021	44.556	62.764
18245.605	42.264	73.226
18510.994	40.348	84.445
18780.242	38.868	98.001
19053.408	37.569	110.117
19330.547	36.408	126.975
19611.715	35.649	143.941
19896.975	34.832	159.556
