* Measurement data measured by REW V5.19
* Source: Mic in at front panel (Pink) (Realtek(R) Audio), no input selected, L, volume: no control
* Format: 256k Log Swept Sine, 1 sweep at -12.0 dBFS  With no timing reference
* Dated: Jun 24, 2021 6:57:02 PM
* REW Settings:
*  C-weighting compensation: Off
*  Target level: 75.0 dB
* Note: BLON BL03 with Tanchjim filter
* Measurement: Jun 24 18:57:02
* Smoothing: None
* Frequency Step: 1/48 octave
* Start Frequency: 20.3 Hz
*
* Freq(Hz)	SPL(dB)	Phase(degrees)
20.291	72.993	32.825
20.586	73.014	32.291
20.885	73.039	31.792
21.189	73.040	31.256
21.497	73.040	30.690
21.810	73.048	30.103
22.127	73.055	29.503
22.449	73.053	28.890
22.776	73.055	28.254
23.107	73.064	27.591
23.443	73.065	26.904
23.784	73.067	26.206
24.130	73.074	25.512
24.481	73.086	24.830
24.837	73.096	24.157
25.198	73.095	23.485
25.565	73.103	22.813
25.937	73.121	22.144
26.314	73.134	21.483
26.697	73.152	20.836
27.085	73.158	20.212
27.479	73.147	19.623
27.879	73.147	19.081
28.284	73.139	18.579
28.696	73.140	18.094
29.113	73.156	17.593
29.537	73.160	17.067
29.966	73.157	16.531
30.402	73.147	16.001
30.844	73.145	15.464
31.293	73.156	14.890
31.748	73.154	14.281
32.210	73.140	13.689
32.678	73.104	13.160
33.154	73.095	12.666
33.636	73.112	12.113
34.125	73.119	11.459
34.621	73.114	10.770
35.125	73.099	10.161
35.636	73.089	9.652
36.154	73.101	9.162
36.680	73.119	8.623
37.214	73.124	8.065
37.755	73.110	7.548
38.304	73.086	7.069
38.861	73.068	6.584
39.427	73.027	6.087
40.000	72.984	5.589
40.582	72.975	5.080
41.172	72.963	4.548
41.771	72.938	4.016
42.379	72.916	3.512
42.995	72.911	3.027
43.620	72.915	2.543
44.255	72.913	2.045
44.898	72.902	1.519
45.552	72.881	0.981
46.214	72.858	0.496
46.886	72.835	0.103
47.568	72.817	-0.274
48.260	72.806	-0.747
48.962	72.768	-1.306
49.674	72.707	-1.818
50.397	72.673	-2.240
51.130	72.664	-2.687
51.874	72.654	-3.187
52.628	72.634	-3.657
53.394	72.597	-4.125
54.170	72.561	-4.582
54.958	72.550	-4.951
55.758	72.551	-5.408
56.569	72.530	-5.963
57.391	72.501	-6.366
58.226	72.482	-6.829
59.073	72.437	-7.399
59.932	72.392	-7.759
60.804	72.364	-8.171
61.688	72.310	-8.684
62.586	72.265	-9.077
63.496	72.241	-9.546
64.420	72.203	-10.001
65.357	72.171	-10.430
66.307	72.129	-10.972
67.272	72.085	-11.340
68.250	72.077	-11.679
69.243	72.046	-12.164
70.250	71.999	-12.494
71.272	71.940	-12.910
72.309	71.868	-13.183
73.360	71.827	-13.719
74.427	71.746	-14.212
75.510	71.725	-14.457
76.608	71.686	-15.144
77.723	71.633	-15.295
78.853	71.680	-15.794
80.000	71.568	-16.283
81.164	71.555	-16.338
82.344	71.319	-16.645
83.542	71.398	-15.382
84.757	71.407	-17.728
85.990	71.164	-17.980
87.241	71.106	-18.483
88.510	71.039	-18.630
89.797	70.970	-18.350
91.103	71.018	-18.543
92.428	70.825	-18.276
93.773	70.972	-17.679
95.137	70.942	-19.226
96.520	70.934	-19.318
97.924	70.934	-20.535
99.349	70.815	-20.648
100.794	70.700	-20.971
102.260	70.583	-21.337
103.747	70.482	-22.141
105.256	70.444	-22.641
106.787	70.459	-22.794
108.340	70.358	-22.613
109.916	70.261	-21.859
111.515	69.836	-22.903
113.137	69.896	-23.503
114.783	69.970	-23.545
116.452	69.797	-21.368
118.146	69.699	-20.725
119.865	73.040	-7.466
121.608	70.344	-22.743
123.377	70.148	-19.323
125.171	70.470	-18.113
126.992	70.083	-21.208
128.839	69.967	-24.074
130.713	69.952	-23.191
132.615	69.697	-23.528
134.543	69.515	-23.698
136.500	69.754	-25.649
138.486	69.713	-25.750
140.500	69.620	-25.505
142.544	69.485	-25.723
144.617	69.439	-25.947
146.721	69.434	-26.638
148.855	69.372	-25.223
151.020	69.124	-26.563
153.217	68.882	-26.225
155.445	68.967	-27.510
157.706	68.888	-27.375
160.000	69.208	-26.905
162.327	68.870	-27.198
164.688	68.768	-28.020
167.084	68.684	-28.601
169.514	68.575	-28.289
171.980	68.423	-28.170
174.481	68.267	-28.349
177.019	68.161	-28.379
179.594	68.032	-28.474
182.206	67.937	-28.551
184.856	67.931	-28.617
187.545	67.943	-28.648
190.273	67.798	-28.564
193.041	67.765	-28.673
195.849	67.710	-28.916
198.697	67.651	-28.669
201.587	67.512	-28.460
204.520	67.433	-28.380
207.494	67.458	-28.268
210.512	67.356	-28.256
213.574	67.257	-28.601
216.681	67.174	-28.584
219.833	67.048	-28.467
223.030	66.968	-28.278
226.274	66.879	-28.210
229.565	66.822	-28.274
232.905	66.748	-28.223
236.292	66.677	-28.050
239.729	66.599	-28.002
243.216	66.508	-28.014
246.754	66.419	-27.951
250.343	66.329	-27.920
253.984	66.225	-27.644
257.678	66.144	-27.108
261.426	66.112	-26.888
265.229	66.041	-26.961
269.087	65.954	-26.967
273.001	65.858	-26.659
276.972	65.783	-26.411
281.000	65.690	-26.146
285.088	65.623	-25.889
289.234	65.600	-25.435
293.441	65.549	-25.602
297.710	65.468	-25.568
302.040	65.361	-25.396
306.433	65.298	-25.248
310.890	65.233	-24.947
315.412	65.179	-24.671
320.000	65.064	-24.602
324.655	64.969	-24.309
329.377	64.907	-23.936
334.168	64.818	-23.551
339.028	64.753	-23.199
343.959	64.674	-23.081
348.962	64.586	-22.751
354.038	64.532	-22.434
359.188	64.479	-22.075
364.412	64.401	-21.771
369.713	64.321	-21.368
375.090	64.241	-20.971
380.546	64.166	-20.546
386.081	64.100	-20.244
391.697	64.034	-19.792
397.395	63.981	-19.301
403.175	63.892	-19.040
409.039	63.853	-18.521
414.989	63.762	-18.107
421.025	63.683	-17.722
427.149	63.626	-17.233
433.362	63.588	-16.557
439.665	63.520	-16.185
446.060	63.482	-15.635
452.548	63.432	-15.006
459.131	63.448	-14.865
465.809	63.338	-14.622
472.584	63.269	-14.188
479.458	63.202	-13.549
486.432	63.174	-13.036
493.507	63.067	-12.928
500.686	62.999	-12.040
507.968	62.961	-11.461
515.357	62.918	-10.924
522.853	62.867	-10.378
530.458	62.762	-9.904
538.174	62.744	-9.039
546.002	62.687	-8.584
553.943	62.640	-7.791
562.001	62.606	-7.137
570.175	62.566	-6.574
578.469	62.503	-5.869
586.883	62.484	-5.203
595.419	62.382	-4.602
604.080	62.359	-3.721
612.866	62.334	-2.929
621.780	62.311	-2.371
630.824	62.185	-1.648
640.000	62.219	-0.545
649.309	62.158	0.222
658.753	62.094	1.243
668.335	62.162	2.389
678.056	62.132	2.955
687.919	62.093	4.199
697.925	62.090	5.492
708.076	62.218	6.470
718.376	62.284	6.804
728.825	62.267	7.253
739.426	62.255	7.936
750.181	62.240	8.781
761.093	62.230	9.635
772.163	62.220	10.518
783.394	62.241	11.600
794.789	62.249	12.372
806.349	62.244	13.537
818.078	62.305	14.485
829.977	62.354	15.942
842.050	62.443	16.307
854.297	62.469	17.212
866.724	62.557	17.788
879.330	62.539	19.016
892.120	62.624	19.951
905.097	62.662	20.617
918.262	62.754	21.767
931.618	62.804	22.848
945.169	62.916	23.730
958.917	62.996	24.737
972.864	63.071	25.417
987.015	63.189	26.436
1001.371	63.326	26.927
1015.937	63.422	28.137
1030.714	63.508	28.848
1045.706	63.710	30.055
1060.916	63.857	30.523
1076.347	64.004	30.866
1092.003	64.157	31.514
1107.887	64.302	31.875
1124.001	64.477	32.277
1140.350	64.639	32.643
1156.937	64.765	33.104
1173.765	64.931	33.199
1190.838	65.060	33.660
1208.159	65.280	34.405
1225.732	65.452	33.883
1243.561	65.642	33.689
1261.649	65.759	33.944
1280.000	65.889	33.514
1298.618	66.011	33.614
1317.507	66.150	33.772
1336.670	66.282	33.741
1356.113	66.393	33.456
1375.838	66.565	33.215
1395.850	66.627	33.187
1416.153	66.717	33.831
1436.751	66.915	33.538
1457.649	67.066	33.096
1478.851	67.216	32.937
1500.362	67.373	32.662
1522.185	67.534	32.436
1544.326	67.734	32.258
1566.789	67.895	32.079
1589.578	68.158	32.322
1612.699	68.337	32.280
1636.156	68.352	31.534
1659.955	68.247	30.999
1684.099	68.107	30.688
1708.595	68.019	30.419
1733.447	67.993	29.861
1758.661	68.011	29.220
1784.241	68.097	28.675
1810.193	68.263	29.018
1836.523	68.404	28.508
1863.236	68.557	28.046
1890.338	68.695	27.420
1917.833	68.822	26.870
1945.729	68.897	26.105
1974.030	69.055	26.026
2002.743	69.170	25.184
2031.873	69.285	24.326
2061.428	69.344	23.619
2091.412	69.458	22.911
2121.832	69.485	22.120
2152.695	69.494	20.793
2184.007	69.435	20.409
2215.774	69.463	19.824
2248.003	69.481	19.132
2280.701	69.450	18.433
2313.874	69.433	17.884
2347.530	69.396	18.206
2381.676	69.442	18.011
2416.318	69.553	17.837
2451.464	69.655	16.907
2487.122	69.683	15.884
2523.298	69.725	14.621
2560.000	69.595	13.599
2597.236	69.552	13.045
2635.014	69.487	12.394
2673.341	69.424	11.842
2712.226	69.270	11.273
2751.676	69.236	11.109
2791.700	69.165	10.993
2832.306	69.085	10.384
2873.503	69.014	10.476
2915.299	68.927	9.336
2957.703	68.823	9.611
3000.724	68.702	9.787
3044.370	68.618	9.893
3088.652	68.511	9.672
3133.577	68.451	10.076
3179.156	68.443	10.454
3225.398	68.405	10.636
3272.312	68.411	10.913
3319.909	68.339	10.723
3368.198	68.309	11.046
3417.190	68.288	11.450
3466.894	68.264	11.402
3517.321	68.201	11.913
3568.482	68.166	12.551
3620.387	68.138	13.090
3673.046	68.237	13.350
3726.472	68.219	13.603
3780.675	68.263	13.899
3835.666	68.357	13.728
3891.457	68.389	13.685
3948.060	68.423	13.994
4005.486	68.482	14.344
4063.747	68.593	13.909
4122.855	68.570	14.258
4182.824	68.602	14.867
4243.664	68.642	14.638
4305.390	68.633	14.993
4368.013	68.649	14.713
4431.547	68.726	15.180
4496.005	68.748	14.479
4561.401	68.753	14.211
4627.749	68.846	13.184
4695.061	68.813	12.006
4763.352	68.764	11.077
4832.637	68.777	10.406
4902.929	68.731	9.043
4974.244	68.685	7.996
5046.596	68.608	6.244
5120.000	68.500	4.949
5194.472	68.266	4.434
5270.027	68.043	3.634
5346.682	67.792	3.415
5424.451	67.521	3.001
5503.352	67.231	3.544
5583.399	67.001	3.964
5664.612	66.710	3.774
5747.006	66.353	4.223
5830.598	66.022	4.787
5915.406	65.667	5.218
6001.447	65.399	6.531
6088.740	65.055	7.834
6177.303	64.840	9.361
6267.154	64.639	11.094
6358.312	64.352	12.912
6450.796	64.162	14.853
6544.625	64.014	17.525
6639.818	63.916	19.979
6736.397	63.776	22.325
6834.380	63.711	24.840
6933.789	63.695	27.950
7034.643	63.776	30.805
7136.964	63.823	33.952
7240.773	63.905	36.775
7346.093	64.069	40.154
7452.944	64.357	43.033
7561.350	64.686	46.364
7671.332	64.982	49.237
7782.915	65.506	52.345
7896.120	65.992	54.838
8010.971	66.648	56.770
8127.493	67.301	59.244
8245.711	68.319	60.418
8365.647	69.472	60.559
8487.328	70.756	58.590
8610.779	72.260	54.693
8736.026	73.797	46.373
8863.095	74.912	32.307
8992.011	75.024	16.240
9122.803	74.148	2.286
9255.497	72.773	-7.636
9390.121	71.290	-12.359
9526.704	70.037	-13.949
9665.273	68.945	-14.559
9805.857	68.118	-13.602
9948.487	67.489	-11.351
10093.191	67.095	-9.740
10240.000	66.906	-7.940
10388.944	67.031	-6.443
10540.055	67.213	-6.718
10693.363	67.553	-8.990
10848.902	67.822	-13.566
11006.703	67.865	-22.588
11166.799	67.193	-32.072
11329.224	65.612	-39.614
11494.012	63.633	-40.445
11661.195	62.188	-36.222
11830.812	61.512	-29.980
12002.895	61.557	-25.603
12177.480	61.787	-26.107
12354.606	61.631	-29.292
12534.309	61.088	-32.514
12716.624	60.223	-34.005
12901.592	59.342	-34.057
13089.250	58.386	-32.079
13279.637	57.798	-28.593
13472.794	57.349	-24.880
13668.760	57.114	-20.721
13867.577	57.054	-17.084
14069.285	57.384	-14.092
14273.928	58.352	-13.590
14481.547	59.881	-17.351
14692.186	61.696	-32.988
14905.889	61.616	-58.619
15122.700	58.895	-79.531
15342.664	55.613	-86.859
15565.829	52.597	-87.297
15792.239	49.809	-83.902
16021.942	47.253	-79.120
16254.986	45.182	-72.769
16491.422	43.683	-67.269
16731.295	43.029	-60.767
16974.656	42.377	-54.437
17221.559	42.428	-50.066
17472.053	42.668	-49.226
17726.189	43.395	-54.988
17984.021	43.347	-70.224
18245.605	41.045	-89.371
18510.994	36.941	-99.890
18780.242	33.134	-100.681
19053.408	29.009	-92.796
19330.547	26.144	-85.992
19611.715	22.191	-76.717
19896.975	18.801	-53.867
