* Measurement data measured by REW V5.19
* Source: Mic in at front panel (Pink) (Realtek(R) Audio), no input selected, L, volume: no control
* Format: 256k Log Swept Sine, 1 sweep at -12.0 dBFS  With no timing reference
* Dated: Jul 3, 2021 7:48:22 PM
* REW Settings:
*  C-weighting compensation: Off
*  Target level: 75.0 dB
* Note: CCA CX4
* Measurement: Jul 3 19:48:22
* Smoothing: 1/24 octave
* Frequency Step: 1/48 octave
* Start Frequency: 20.3 Hz
*
* Freq(Hz)	SPL(dB)	Phase(degrees)
20.291	77.530	-53.167
20.586	77.556	-57.554
20.885	77.617	-65.788
21.189	77.687	-74.196
21.497	77.755	-82.482
21.810	77.810	-90.912
22.127	77.839	-99.573
22.449	77.840	-108.357
22.776	77.819	-117.111
23.107	77.788	-125.797
23.443	77.763	-134.440
23.784	77.751	-143.100
24.130	77.753	-151.855
24.481	77.758	-160.752
24.837	77.757	-169.793
25.198	77.744	-178.946
25.565	77.726	171.823
25.937	77.712	162.523
26.314	77.708	153.124
26.697	77.712	143.576
27.085	77.719	133.840
27.479	77.722	123.912
27.879	77.718	113.821
28.284	77.709	103.614
28.696	77.701	93.328
29.113	77.698	82.972
29.537	77.699	72.532
29.966	77.704	61.982
30.402	77.709	51.304
30.844	77.715	40.498
31.293	77.720	29.571
31.748	77.719	18.533
32.210	77.710	7.376
32.678	77.696	-3.920
33.154	77.684	-15.379
33.636	77.675	-27.009
34.125	77.664	-38.796
34.621	77.651	-50.715
35.125	77.643	-62.756
35.636	77.644	-74.939
36.154	77.653	-87.291
36.680	77.660	-99.811
37.214	77.656	-112.458
37.755	77.640	-125.186
38.304	77.619	-137.990
38.861	77.600	-150.917
39.427	77.584	-164.026
40.000	77.572	-177.340
40.582	77.565	169.165
41.172	77.561	155.529
41.771	77.558	141.764
42.379	77.562	127.850
42.995	77.574	113.746
43.620	77.586	99.431
44.255	77.584	84.919
44.898	77.568	70.260
45.552	77.547	55.484
46.214	77.532	40.569
46.886	77.520	25.481
47.568	77.505	10.226
48.260	77.490	-5.189
48.962	77.475	-20.829
49.674	77.457	-36.760
50.397	77.429	-52.923
51.130	77.402	-69.184
51.874	77.394	-85.537
52.628	77.407	-102.114
53.394	77.420	-118.958
54.170	77.431	-135.991
54.958	77.444	-153.183
55.758	77.452	-170.567
56.569	77.445	171.880
57.391	77.433	154.163
58.226	77.424	136.196
59.073	77.416	117.930
59.932	77.403	99.430
60.804	77.386	80.758
61.688	77.370	61.917
62.586	77.358	42.884
63.496	77.352	23.625
64.420	77.343	4.112
65.357	77.330	-15.675
66.307	77.315	-35.724
67.272	77.307	-55.997
68.250	77.308	-76.483
69.243	77.307	-97.149
70.250	77.306	-117.975
71.272	77.299	-139.132
72.309	77.255	-160.627
73.360	77.199	177.733
74.427	77.173	155.790
75.510	77.148	133.395
76.608	77.104	110.738
77.723	77.054	87.893
78.853	77.002	64.871
80.000	76.967	41.654
81.164	76.945	18.116
82.344	76.914	-5.684
83.542	76.869	-29.695
84.757	76.814	-53.965
85.990	76.765	-78.568
87.241	76.723	-103.556
88.510	76.670	-128.767
89.797	76.601	-154.134
91.103	76.525	-179.794
92.428	76.451	154.156
93.773	76.386	127.802
95.137	76.323	101.182
96.520	76.232	74.249
97.924	76.124	47.015
99.349	76.026	19.525
100.794	75.917	-8.189
102.260	75.765	-36.132
103.747	75.640	-64.393
105.256	75.607	-93.195
106.787	75.566	-122.195
108.340	75.410	-151.165
109.916	75.197	179.343
111.515	75.068	149.202
113.137	74.988	119.081
114.783	74.803	88.773
116.452	74.807	56.237
118.146	75.423	19.983
119.865	75.795	-16.667
121.608	75.301	-45.124
123.377	74.624	-69.607
125.171	73.914	-98.968
126.992	73.181	-131.701
128.839	72.803	-163.209
130.713	72.986	164.416
132.615	73.303	131.327
134.543	73.434	100.099
136.500	73.169	69.283
138.486	73.110	34.716
140.500	73.531	-4.550
142.544	73.865	-43.278
144.617	73.850	-81.014
146.721	73.638	-119.314
148.855	73.333	-156.872
151.020	73.089	166.252
153.217	72.930	128.607
155.445	72.752	90.892
157.706	72.498	52.726
160.000	72.290	13.541
162.327	72.173	-25.656
164.688	72.070	-64.859
167.084	71.928	-104.571
169.514	71.765	-144.652
171.980	71.577	174.709
174.481	71.395	133.560
177.019	71.214	92.032
179.594	71.039	50.067
182.206	70.903	7.719
184.856	70.809	-35.242
187.545	70.779	-78.993
190.273	70.718	-122.905
193.041	70.549	-166.752
195.849	70.386	148.847
198.697	70.247	103.893
201.587	70.136	58.725
204.520	70.091	13.521
207.494	70.015	-33.114
210.512	69.818	-81.211
213.574	69.637	-129.270
216.681	69.477	-177.415
219.833	69.314	134.060
223.030	69.178	85.107
226.274	69.058	35.663
229.565	68.921	-14.411
232.905	68.769	-64.984
236.292	68.624	-115.957
239.729	68.515	-167.261
243.216	68.428	141.024
246.754	68.349	88.763
250.343	68.298	35.887
253.984	68.288	-17.701
257.678	68.300	-72.140
261.426	68.287	-127.423
265.229	68.227	176.604
269.087	68.127	120.039
273.001	67.999	62.969
276.972	67.881	5.421
281.000	67.782	-52.529
285.088	67.685	-110.981
289.234	67.581	-170.106
293.441	67.472	130.144
297.710	67.368	69.836
302.040	67.278	8.941
306.433	67.192	-52.551
310.890	67.103	-114.664
315.412	67.010	-177.416
320.000	66.916	119.215
324.655	66.831	55.216
329.377	66.747	-9.427
334.168	66.660	-74.723
339.028	66.570	-140.689
343.959	66.482	152.679
348.962	66.401	85.395
354.038	66.331	17.437
359.188	66.262	-51.199
364.412	66.187	-120.501
369.713	66.104	169.503
375.090	66.024	98.799
380.546	65.957	27.392
386.081	65.895	-44.705
391.697	65.834	-117.508
397.395	65.768	168.970
403.175	65.697	94.730
409.039	65.631	19.764
414.989	65.569	-55.960
421.025	65.508	-132.438
427.149	65.455	150.347
433.362	65.404	72.402
439.665	65.353	-6.297
446.060	65.301	-85.777
452.548	65.248	-166.035
459.131	65.197	112.944
465.809	65.149	31.146
472.584	65.105	-51.425
479.458	65.064	-134.782
486.432	65.023	141.044
493.507	64.982	56.053
500.686	64.942	-29.736
507.968	64.904	-116.325
515.357	64.869	156.264
522.853	64.832	68.021
530.458	64.796	-21.053
538.174	64.763	-110.963
546.002	64.733	158.275
553.943	64.702	66.664
562.001	64.669	-25.800
570.175	64.638	-119.115
578.469	64.610	146.712
586.883	64.577	51.675
595.419	64.542	-44.229
604.080	64.512	-141.011
612.866	64.491	121.312
621.780	64.470	22.758
630.824	64.445	-76.664
640.000	64.419	-176.975
649.309	64.391	81.815
658.753	64.363	-20.295
668.335	64.342	-123.317
678.056	64.327	132.764
687.919	64.308	27.940
697.925	64.285	-77.816
708.076	64.265	175.508
718.376	64.246	67.919
728.825	64.232	-40.594
739.426	64.223	-150.025
750.181	64.214	99.607
761.093	64.205	-11.697
772.163	64.199	-123.943
783.394	64.199	122.859
794.789	64.210	8.707
806.349	64.227	-106.413
818.078	64.247	137.505
829.977	64.272	20.461
842.050	64.308	-97.577
854.297	64.352	143.371
866.724	64.399	23.315
879.330	64.454	-97.746
892.120	64.516	140.149
905.097	64.584	16.980
918.262	64.655	-107.241
931.618	64.731	127.479
945.169	64.809	1.107
958.917	64.885	-126.355
972.864	64.959	105.124
987.015	65.027	-24.460
1001.371	65.087	-155.122
1015.937	65.134	73.183
1030.714	65.170	-59.523
1045.706	65.199	166.752
1060.916	65.225	32.017
1076.347	65.249	-103.703
1092.003	65.273	119.593
1107.887	65.302	-18.112
1124.001	65.334	-156.818
1140.350	65.365	63.476
1156.937	65.392	-77.231
1173.765	65.421	141.051
1190.838	65.457	-1.698
1208.159	65.497	-145.476
1225.732	65.546	69.720
1243.561	65.601	-76.112
1261.649	65.655	137.043
1280.000	65.707	-10.842
1298.618	65.760	-159.772
1317.507	65.810	50.287
1336.670	65.862	-100.641
1356.113	65.919	107.459
1375.838	65.985	-45.428
1395.850	66.062	160.684
1416.153	66.154	5.779
1436.751	66.256	-150.150
1457.649	66.366	52.891
1478.851	66.488	-105.074
1500.362	66.629	95.969
1522.185	66.794	-63.977
1544.326	66.980	135.104
1566.789	67.180	-26.809
1589.578	67.372	170.293
1612.699	67.515	6.422
1636.156	67.574	-158.428
1659.955	67.556	35.744
1684.099	67.509	-131.059
1708.595	67.490	61.176
1733.447	67.536	-107.549
1758.661	67.659	82.775
1784.241	67.846	-87.846
1810.193	68.065	100.602
1836.523	68.297	-71.867
1863.236	68.539	114.748
1890.338	68.794	-59.553
1917.833	69.060	125.242
1945.729	69.331	-50.865
1974.030	69.605	132.145
2002.743	69.882	-45.713
2031.873	70.167	135.584
2061.428	70.456	-43.951
2091.412	70.750	135.705
2121.832	71.052	-45.406
2152.695	71.372	132.746
2184.007	71.730	-49.826
2215.774	72.144	126.809
2248.003	72.614	-57.539
2280.701	73.115	116.984
2313.874	73.612	-69.615
2347.530	74.088	102.793
2381.676	74.546	-85.656
2416.318	74.995	85.094
2451.464	75.443	-104.934
2487.122	75.891	64.246
2523.298	76.336	-127.398
2560.000	76.770	40.129
2597.236	77.186	-153.168
2635.014	77.574	12.709
2673.341	77.925	177.791
2712.226	78.225	-17.871
2751.676	78.457	145.797
2791.700	78.609	-51.076
2832.306	78.676	111.658
2873.503	78.654	-85.836
2915.299	78.543	76.650
2957.703	78.348	-120.668
3000.724	78.086	42.396
3044.370	77.792	-153.969
3088.652	77.517	10.330
3133.577	77.313	175.250
3179.156	77.230	-19.428
3225.398	77.289	145.930
3272.312	77.465	-49.086
3319.909	77.697	115.316
3368.198	77.925	-80.822
3417.190	78.110	82.719
3466.894	78.237	-113.779
3517.321	78.308	49.902
3568.482	78.340	-146.094
3620.387	78.353	18.312
3673.046	78.363	-176.816
3726.472	78.383	-11.453
3780.675	78.426	154.402
3835.666	78.500	-39.260
3891.457	78.599	127.533
3948.060	78.709	-65.215
4005.486	78.816	102.531
4063.747	78.903	-89.199
4122.855	78.957	79.574
4182.824	78.962	-111.201
4243.664	78.883	58.477
4305.390	78.682	-131.316
4368.013	78.323	39.635
4431.547	77.769	-148.305
4496.005	76.982	25.438
4561.401	75.938	-158.324
4627.749	74.632	21.533
4695.061	73.124	-153.535
4763.352	71.640	37.852
4832.637	70.763	-124.324
4902.929	71.213	77.008
4974.244	72.875	-82.805
5046.596	74.958	113.244
5120.000	76.900	-54.994
5194.472	78.443	133.863
5270.027	79.466	-38.359
5346.682	79.929	150.312
5424.451	79.871	-18.266
5503.352	79.398	177.246
5583.399	78.656	17.430
5664.612	77.786	-137.695
5747.006	76.897	71.625
5830.598	76.051	-74.891
5915.406	75.278	142.543
6001.447	74.584	3.820
6088.740	73.960	-131.098
6177.303	73.402	97.797
6267.154	72.911	-29.453
6358.312	72.483	-152.746
6450.796	72.117	88.004
6544.625	71.808	-27.109
6639.818	71.554	-137.988
6736.397	71.356	115.469
6834.380	71.213	13.395
6933.789	71.125	-84.078
7034.643	71.089	-176.809
7136.964	71.101	95.305
7240.773	71.162	12.406
7346.093	71.282	-65.352
7452.944	71.471	-137.797
7561.350	71.731	155.227
7671.332	72.060	93.863
7782.915	72.459	38.242
7896.120	72.935	-11.496
8010.971	73.512	-55.242
8127.493	74.223	-92.898
8245.711	75.094	-124.406
8365.647	76.156	-149.750
8487.328	77.448	-169.121
8610.779	78.988	177.012
8736.026	80.682	167.680
8863.095	82.247	161.559
8992.011	83.289	158.016
9122.803	83.588	158.773
9255.497	83.134	168.293
9390.121	82.017	-168.957
9526.704	80.505	-131.957
9665.273	78.977	-81.938
9805.857	77.669	-20.230
9948.487	76.648	52.348
10093.191	75.904	135.332
10240.000	75.390	-131.508
10388.944	75.055	-28.297
10540.055	74.854	84.953
10693.363	74.705	-151.602
10848.902	74.514	-17.523
11006.703	74.252	127.930
11166.799	73.962	-74.406
11329.224	73.715	96.105
11494.012	73.599	-80.371
11661.195	73.695	115.887
11830.812	74.020	-35.648
12002.895	74.495	-175.500
12177.480	74.967	56.023
12354.606	75.237	-60.727
12534.309	75.142	-164.312
12716.624	74.654	107.254
12901.592	73.881	35.500
13089.250	72.990	-19.051
13279.637	72.105	-56.656
13472.794	71.238	-77.746
13668.760	70.266	-82.375
13867.577	69.069	-69.875
14069.285	67.638	-39.094
14273.928	66.045	11.312
14481.547	64.385	82.492
14692.186	62.802	175.088
14905.889	61.493	-71.475
15122.700	60.441	61.279
15342.664	59.224	-145.578
15565.829	57.742	30.822
15792.239	56.261	-129.562
16021.942	54.922	92.365
16254.986	53.838	-23.477
16491.422	53.156	-116.742
16731.295	52.900	172.809
16974.656	52.920	125.123
17221.559	53.103	99.332
17472.053	53.319	92.824
17726.189	53.147	100.189
17984.021	52.020	113.270
18245.605	50.214	129.098
18510.994	50.310	164.902
18780.242	52.048	-119.092
19053.408	52.558	-16.393
19330.547	51.516	78.779
19611.715	51.940	137.777
19896.975	53.851	20.154
