* Measurement data measured by REW V5.19
* Source: Mic in at front panel (Pink) (Realtek(R) Audio), no input selected, L, volume: no control
* Format: 256k Log Swept Sine, 1 sweep at -12.0 dBFS  With no timing reference
* Dated: Jun 27, 2021 2:48:23 PM
* REW Settings:
*  C-weighting compensation: Off
*  Target level: 75.0 dB
* Note: CCA CA2
* Measurement: Jun 27 14:48:23
* Smoothing: None
* Frequency Step: 1/48 octave
* Start Frequency: 20.3 Hz
*
* Freq(Hz)	SPL(dB)	Phase(degrees)
20.291	80.343	23.220
20.586	80.344	22.553
20.885	80.346	21.987
21.189	80.326	21.431
21.497	80.308	20.861
21.810	80.306	20.264
22.127	80.301	19.639
22.449	80.287	18.995
22.776	80.275	18.339
23.107	80.272	17.674
23.443	80.265	16.991
23.784	80.262	16.280
24.130	80.263	15.539
24.481	80.266	14.780
24.837	80.259	14.030
25.198	80.236	13.316
25.565	80.222	12.649
25.937	80.222	12.020
26.314	80.223	11.401
26.697	80.234	10.767
27.085	80.233	10.114
27.479	80.212	9.462
27.879	80.196	8.838
28.284	80.167	8.260
28.696	80.145	7.720
29.113	80.138	7.188
29.537	80.122	6.634
29.966	80.102	6.051
30.402	80.074	5.451
30.844	80.049	4.851
31.293	80.037	4.254
31.748	80.021	3.649
32.210	80.002	3.022
32.678	79.961	2.373
33.154	79.935	1.713
33.636	79.920	1.058
34.125	79.896	0.420
34.621	79.874	-0.195
35.125	79.854	-0.781
35.636	79.836	-1.340
36.154	79.828	-1.881
36.680	79.824	-2.411
37.214	79.814	-2.928
37.755	79.789	-3.440
38.304	79.752	-3.967
38.861	79.715	-4.517
39.427	79.651	-5.067
40.000	79.584	-5.593
40.582	79.554	-6.121
41.172	79.525	-6.703
41.771	79.480	-7.323
42.379	79.430	-7.904
42.995	79.398	-8.417
43.620	79.378	-8.918
44.255	79.351	-9.435
44.898	79.313	-9.931
45.552	79.273	-10.395
46.214	79.242	-10.849
46.886	79.207	-11.288
47.568	79.167	-11.717
48.260	79.128	-12.182
48.962	79.070	-12.694
49.674	78.998	-13.212
50.397	78.946	-13.707
51.130	78.909	-14.180
51.874	78.880	-14.669
52.628	78.839	-15.191
53.394	78.770	-15.654
54.170	78.717	-16.022
54.958	78.695	-16.436
55.758	78.660	-16.925
56.569	78.615	-17.349
57.391	78.580	-17.763
58.226	78.531	-18.292
59.073	78.465	-18.798
59.932	78.411	-19.212
60.804	78.357	-19.695
61.688	78.284	-20.176
62.586	78.229	-20.579
63.496	78.189	-21.062
64.420	78.129	-21.520
65.357	78.064	-21.864
66.307	78.006	-22.255
67.272	77.948	-22.713
68.250	77.882	-23.089
69.243	77.822	-23.437
70.250	77.754	-23.825
71.272	77.680	-24.217
72.309	77.592	-24.543
73.360	77.549	-24.717
74.427	77.538	-25.247
75.510	77.471	-25.672
76.608	77.410	-26.041
77.723	77.316	-26.419
78.853	77.251	-26.546
80.000	77.206	-26.914
81.164	77.147	-27.438
82.344	77.067	-27.904
83.542	77.008	-28.433
84.757	76.913	-28.986
85.990	76.837	-29.192
87.241	76.753	-29.589
88.510	76.666	-29.770
89.797	76.577	-30.045
91.103	76.486	-30.379
92.428	76.400	-30.572
93.773	76.325	-30.942
95.137	76.246	-31.096
96.520	76.190	-31.425
97.924	76.112	-31.616
99.349	76.025	-31.910
100.794	75.916	-32.144
102.260	75.812	-32.310
103.747	75.748	-32.465
105.256	75.689	-32.732
106.787	75.605	-32.793
108.340	75.550	-33.096
109.916	75.453	-33.315
111.515	75.346	-33.638
113.137	75.278	-33.914
114.783	75.192	-34.139
116.452	75.061	-34.371
118.146	74.968	-34.436
119.865	74.853	-33.289
121.608	74.792	-34.564
123.377	74.711	-34.495
125.171	74.622	-34.679
126.992	74.549	-34.878
128.839	74.469	-34.882
130.713	74.337	-34.929
132.615	74.259	-35.227
134.543	74.191	-34.959
136.500	74.114	-35.276
138.486	73.992	-35.652
140.500	73.900	-35.690
142.544	73.823	-35.625
144.617	73.720	-35.621
146.721	73.615	-35.545
148.855	73.405	-35.953
151.020	73.401	-36.074
153.217	73.366	-35.491
155.445	73.191	-35.759
157.706	73.116	-35.657
160.000	73.116	-36.170
162.327	73.210	-35.272
164.688	73.948	-30.556
167.084	72.844	-33.411
169.514	72.464	-33.972
171.980	72.417	-34.701
174.481	72.352	-34.212
177.019	72.185	-33.529
179.594	72.082	-33.622
182.206	72.058	-33.309
184.856	72.055	-32.700
187.545	72.092	-32.927
190.273	72.057	-32.467
193.041	72.006	-32.805
195.849	71.991	-32.504
198.697	71.922	-32.502
201.587	71.831	-32.624
204.520	71.775	-32.542
207.494	71.757	-32.447
210.512	71.654	-32.471
213.574	71.556	-32.676
216.681	71.446	-32.711
219.833	71.334	-32.563
223.030	71.246	-32.302
226.274	71.180	-32.275
229.565	71.068	-32.269
232.905	70.989	-31.888
236.292	70.909	-31.935
239.729	70.814	-31.728
243.216	70.725	-31.634
246.754	70.620	-31.490
250.343	70.510	-31.298
253.984	70.389	-30.790
257.678	70.319	-30.345
261.426	70.275	-30.124
265.229	70.194	-30.024
269.087	70.093	-29.812
273.001	69.986	-29.467
276.972	69.906	-29.128
281.000	69.810	-28.731
285.088	69.730	-28.278
289.234	69.700	-27.785
293.441	69.658	-27.776
297.710	69.555	-27.652
302.040	69.459	-27.354
306.433	69.387	-26.994
310.890	69.327	-26.619
315.412	69.246	-26.308
320.000	69.127	-26.085
324.655	69.046	-25.590
329.377	68.972	-25.131
334.168	68.892	-24.669
339.028	68.826	-24.229
343.959	68.736	-23.897
348.962	68.649	-23.457
354.038	68.591	-22.989
359.188	68.529	-22.527
364.412	68.447	-22.051
369.713	68.361	-21.599
375.090	68.279	-21.077
380.546	68.215	-20.566
386.081	68.146	-20.055
391.697	68.077	-19.530
397.395	68.013	-18.977
403.175	67.935	-18.383
409.039	67.882	-17.812
414.989	67.803	-17.347
421.025	67.726	-16.781
427.149	67.651	-16.154
433.362	67.618	-15.343
439.665	67.565	-14.828
446.060	67.500	-14.177
452.548	67.458	-13.410
459.131	67.476	-13.091
465.809	67.365	-12.733
472.584	67.298	-12.110
479.458	67.230	-11.385
486.432	67.208	-10.705
493.507	67.099	-10.447
500.686	67.033	-9.435
507.968	66.998	-8.623
515.357	66.959	-8.023
522.853	66.912	-7.358
530.458	66.809	-6.704
538.174	66.793	-5.681
546.002	66.736	-5.102
553.943	66.696	-4.147
562.001	66.664	-3.320
570.175	66.631	-2.632
578.469	66.572	-1.835
586.883	66.565	-0.939
595.419	66.467	-0.213
604.080	66.446	0.817
612.866	66.434	1.737
621.780	66.423	2.477
630.824	66.315	3.331
640.000	66.365	4.592
649.309	66.316	5.456
658.753	66.278	6.584
668.335	66.372	7.763
678.056	66.369	8.365
687.919	66.363	9.309
697.925	66.345	9.992
708.076	66.328	11.034
718.376	66.346	11.941
728.825	66.337	12.752
739.426	66.295	13.543
750.181	66.251	15.111
761.093	66.332	16.250
772.163	66.326	16.665
783.394	66.218	18.330
794.789	66.282	19.807
806.349	66.321	21.249
818.078	66.405	22.448
829.977	66.485	24.026
842.050	66.598	24.527
854.297	66.630	25.563
866.724	66.733	26.288
879.330	66.726	27.689
892.120	66.826	28.803
905.097	66.870	29.582
918.262	66.970	30.878
931.618	67.025	32.085
945.169	67.152	33.166
958.917	67.229	34.302
972.864	67.306	35.150
987.015	67.427	36.357
1001.371	67.565	37.030
1015.937	67.662	38.416
1030.714	67.746	39.339
1045.706	67.944	40.755
1060.916	68.085	41.457
1076.347	68.225	42.038
1092.003	68.372	42.963
1107.887	68.508	43.639
1124.001	68.674	44.348
1140.350	68.824	45.095
1156.937	68.946	45.917
1173.765	69.104	46.456
1190.838	69.232	47.346
1208.159	69.450	48.599
1225.732	69.625	48.563
1243.561	69.822	48.902
1261.649	69.947	49.714
1280.000	70.095	49.880
1298.618	70.238	50.603
1317.507	70.404	51.386
1336.670	70.568	51.965
1356.113	70.715	52.322
1375.838	70.923	52.747
1395.850	71.031	53.390
1416.153	71.167	54.736
1436.751	71.425	55.155
1457.649	71.639	55.449
1478.851	71.867	56.037
1500.362	72.104	56.496
1522.185	72.357	56.987
1544.326	72.646	57.527
1566.789	72.911	58.058
1589.578	73.284	59.014
1612.699	73.577	59.666
1636.156	73.717	59.624
1659.955	73.743	59.785
1684.099	73.741	60.155
1708.595	73.801	60.563
1733.447	73.935	60.662
1758.661	74.123	60.664
1784.241	74.382	60.762
1810.193	74.737	61.696
1836.523	75.088	61.760
1863.236	75.451	61.817
1890.338	75.816	61.694
1917.833	76.186	61.575
1945.729	76.517	61.156
1974.030	76.942	61.346
2002.743	77.339	60.670
2031.873	77.753	59.856
2061.428	78.112	59.087
2091.412	78.545	58.163
2121.832	78.894	57.035
2152.695	79.228	55.240
2184.007	79.505	54.262
2215.774	79.885	53.002
2248.003	80.289	51.454
2280.701	80.685	49.452
2313.874	81.083	46.941
2347.530	81.413	44.674
2381.676	81.727	41.472
2416.318	81.999	38.297
2451.464	82.197	34.598
2487.122	82.292	31.051
2523.298	82.379	27.398
2560.000	82.277	24.008
2597.236	82.230	21.140
2635.014	82.138	18.271
2673.341	82.016	15.663
2712.226	81.781	13.172
2751.676	81.645	11.318
2791.700	81.466	9.731
2832.306	81.286	7.920
2873.503	81.127	6.928
2915.299	80.966	4.841
2957.703	80.799	4.219
3000.724	80.631	3.524
3044.370	80.497	2.855
3088.652	80.351	1.925
3133.577	80.270	1.688
3179.156	80.256	1.547
3225.398	80.248	1.237
3272.312	80.318	0.995
3319.909	80.338	0.173
3368.198	80.434	-0.284
3417.190	80.562	-0.920
3466.894	80.692	-2.261
3517.321	80.793	-3.310
3568.482	80.913	-4.532
3620.387	81.012	-6.084
3673.046	81.221	-7.981
3726.472	81.323	-9.899
3780.675	81.523	-11.950
3835.666	81.812	-15.002
3891.457	82.036	-18.696
3948.060	82.206	-22.839
4005.486	82.307	-27.671
4063.747	82.312	-33.958
4122.855	82.005	-39.808
4182.824	81.535	-45.266
4243.664	80.877	-50.973
4305.390	80.031	-55.115
4368.013	79.123	-58.809
4431.547	78.225	-60.727
4496.005	77.268	-62.848
4561.401	76.308	-63.633
4627.749	75.466	-64.353
4695.061	74.548	-64.513
4763.352	73.675	-63.825
4832.637	72.935	-62.371
4902.929	72.205	-61.229
4974.244	71.562	-59.510
5046.596	70.954	-58.302
5120.000	70.385	-56.545
5194.472	69.758	-53.944
5270.027	69.198	-51.684
5346.682	68.663	-48.838
5424.451	68.188	-46.403
5503.352	67.656	-43.721
5583.399	67.106	-40.223
5664.612	66.644	-37.102
5747.006	66.190	-33.582
5830.598	65.797	-30.194
5915.406	65.399	-27.061
6001.447	65.099	-23.268
6088.740	64.755	-19.576
6177.303	64.542	-15.781
6267.154	64.365	-11.910
6358.312	64.114	-8.054
6450.796	63.959	-4.235
6544.625	63.855	0.265
6639.818	63.816	4.433
6736.397	63.727	8.456
6834.380	63.727	12.549
6933.789	63.772	17.142
7034.643	63.913	21.398
7136.964	64.013	25.939
7240.773	64.152	30.193
7346.093	64.368	34.908
7452.944	64.699	39.165
7561.350	65.086	43.811
7671.332	65.420	48.156
7782.915	65.993	52.691
7896.120	66.522	56.761
8010.971	67.219	60.382
8127.493	67.935	64.711
8245.711	69.009	68.034
8365.647	70.269	70.709
8487.328	71.722	71.842
8610.779	73.544	71.687
8736.026	75.732	67.351
8863.095	78.012	55.348
8992.011	79.399	34.904
9122.803	78.784	12.804
9255.497	76.947	-1.603
9390.121	75.014	-7.422
9526.704	73.436	-8.783
9665.273	72.106	-8.531
9805.857	71.110	-6.238
9948.487	70.361	-2.271
10093.191	69.909	1.296
10240.000	69.683	5.390
10388.944	69.798	9.802
10540.055	70.023	13.667
10693.363	70.636	17.315
10848.902	71.639	19.641
11006.703	73.175	19.396
11166.799	75.611	14.192
11329.224	78.218	-7.064
11494.012	77.559	-43.357
11661.195	73.793	-64.662
11830.812	70.179	-70.503
12002.895	67.284	-69.296
12177.480	64.953	-65.689
12354.606	63.053	-60.253
12534.309	61.467	-54.161
12716.624	60.255	-46.804
12901.592	59.224	-39.975
13089.250	58.255	-32.868
13279.637	57.666	-25.309
13472.794	57.118	-18.255
13668.760	56.747	-10.855
13867.577	56.426	-4.100
14069.285	56.382	2.336
14273.928	56.761	7.070
14481.547	57.418	10.602
14692.186	58.490	9.663
14905.889	59.459	4.054
15122.700	59.493	-9.176
15342.664	57.793	-21.438
15565.829	54.818	-26.018
15792.239	51.288	-21.474
16021.942	47.879	-8.482
16254.986	45.204	13.880
16491.422	44.452	42.929
16731.295	46.418	69.953
16974.656	49.551	88.745
17221.559	53.333	98.060
17472.053	57.736	98.231
17726.189	61.883	82.089
17984.021	63.830	56.020
18245.605	64.050	33.579
18510.994	63.509	10.377
18780.242	61.318	-8.193
19053.408	58.766	-14.239
19330.547	57.827	-17.113
19611.715	56.937	-29.013
19896.975	55.642	-44.144
