* Measurement data measured by REW V5.19
* Source: Mic in at front panel (Pink) (Realtek(R) Audio), no input selected, L, volume: no control
* Format: 256k Log Swept Sine, 1 sweep at -12.0 dBFS  With no timing reference
* Dated: Jun 27, 2021 3:17:20 PM
* REW Settings:
*  C-weighting compensation: Off
*  Target level: 75.0 dB
* Note: CVJ CSA
* Measurement: Jun 27 15:17:20
* Smoothing: None
* Frequency Step: 1/48 octave
* Start Frequency: 20.3 Hz
*
* Freq(Hz)	SPL(dB)	Phase(degrees)
20.291	60.575	49.776
20.586	60.589	48.913
20.885	60.592	48.323
21.189	60.582	47.864
21.497	60.588	47.424
21.810	60.618	46.931
22.127	60.645	46.379
22.449	60.657	45.818
22.776	60.668	45.315
23.107	60.695	44.892
23.443	60.737	44.486
23.784	60.801	43.980
24.130	60.874	43.303
24.481	60.935	42.494
24.837	60.967	41.676
25.198	60.969	40.972
25.565	60.980	40.412
25.937	61.014	39.924
26.314	61.054	39.409
26.697	61.100	38.849
27.085	61.127	38.312
27.479	61.137	37.857
27.879	61.172	37.440
28.284	61.205	36.945
28.696	61.232	36.327
29.113	61.239	35.722
29.537	61.217	35.338
29.966	61.213	35.212
30.402	61.254	35.095
30.844	61.331	34.684
31.293	61.398	33.939
31.748	61.408	33.134
32.210	61.381	32.550
32.678	61.341	32.194
33.154	61.339	31.884
33.636	61.356	31.525
34.125	61.361	31.184
34.621	61.376	30.874
35.125	61.392	30.513
35.636	61.388	30.182
36.154	61.388	30.127
36.680	61.450	30.293
37.214	61.580	30.148
37.755	61.681	29.353
38.304	61.677	28.337
38.861	61.619	27.758
39.427	61.578	27.574
40.000	61.584	27.215
40.582	61.600	26.615
41.172	61.588	26.206
41.771	61.601	25.981
42.379	61.651	25.517
42.995	61.682	24.815
43.620	61.675	24.267
44.255	61.666	23.972
44.898	61.666	23.695
45.552	61.659	23.405
46.214	61.657	23.211
46.886	61.670	23.041
47.568	61.677	22.738
48.260	61.664	22.402
48.962	61.638	22.190
49.674	61.627	21.926
50.397	61.629	21.517
51.130	61.636	21.254
51.874	61.687	20.970
52.628	61.711	20.357
53.394	61.660	20.038
54.170	61.678	20.095
54.958	61.748	19.674
55.758	61.734	19.211
56.569	61.739	19.194
57.391	61.784	18.849
58.226	61.758	18.331
59.073	61.721	18.100
59.932	61.709	17.819
60.804	61.671	17.616
61.688	61.666	17.636
62.586	61.723	17.346
63.496	61.745	16.731
64.420	61.726	16.421
65.357	61.719	16.297
66.307	61.726	16.332
67.272	61.798	16.122
68.250	61.800	15.602
69.243	61.794	15.600
70.250	61.841	15.270
71.272	61.834	14.586
72.309	61.727	14.006
73.360	61.677	14.442
74.427	61.755	13.943
75.510	61.639	13.982
76.608	61.765	14.463
77.723	61.765	13.518
78.853	61.771	13.688
80.000	61.812	13.057
81.164	61.880	12.734
82.344	61.837	11.131
83.542	61.688	11.980
84.757	61.902	11.753
85.990	61.837	11.252
87.241	61.867	11.301
88.510	61.833	11.184
89.797	61.781	11.290
91.103	61.850	11.387
92.428	61.813	10.345
93.773	61.720	10.319
95.137	61.751	10.536
96.520	61.824	9.834
97.924	61.792	9.496
99.349	61.779	9.364
100.794	61.804	9.339
102.260	61.733	8.855
103.747	61.705	10.231
105.256	61.893	9.317
106.787	61.739	8.964
108.340	61.753	8.898
109.916	61.806	8.232
111.515	61.828	8.272
113.137	61.717	8.200
114.783	61.731	7.946
116.452	61.727	7.526
118.146	61.650	7.366
119.865	60.998	1.140
121.608	61.541	8.436
123.377	61.600	7.667
125.171	61.723	6.939
126.992	61.692	7.678
128.839	61.700	7.512
130.713	61.530	6.635
132.615	61.518	6.600
134.543	61.651	6.544
136.500	61.756	6.997
138.486	61.618	6.189
140.500	61.589	6.469
142.544	61.562	6.299
144.617	61.522	5.413
146.721	61.559	6.212
148.855	61.572	5.821
151.020	61.530	5.396
153.217	61.344	5.733
155.445	61.606	4.952
157.706	61.713	4.577
160.000	62.538	9.867
162.327	61.502	6.381
164.688	61.437	7.175
167.084	61.403	5.234
169.514	61.463	4.622
171.980	61.330	5.401
174.481	61.295	5.059
177.019	61.250	4.735
179.594	61.198	4.883
182.206	61.174	4.983
184.856	61.297	4.764
187.545	61.185	5.117
190.273	61.281	5.293
193.041	61.248	5.261
195.849	61.191	5.008
198.697	61.283	4.573
201.587	61.176	4.851
204.520	61.102	4.216
207.494	61.134	4.309
210.512	61.040	4.496
213.574	61.052	4.706
216.681	61.003	4.654
219.833	60.927	5.415
223.030	61.049	5.921
226.274	61.095	5.828
229.565	60.845	4.458
232.905	61.094	5.775
236.292	61.086	6.023
239.729	61.059	6.106
243.216	61.056	5.852
246.754	60.978	4.844
250.343	61.022	6.095
253.984	60.908	5.756
257.678	60.925	6.403
261.426	60.999	6.327
265.229	60.933	6.365
269.087	60.931	6.479
273.001	60.929	6.322
276.972	60.871	6.392
281.000	60.824	6.368
285.088	60.859	6.646
289.234	60.872	6.905
293.441	60.891	6.736
297.710	60.859	6.332
302.040	60.833	6.507
306.433	60.810	6.695
310.890	60.800	6.742
315.412	60.783	6.764
320.000	60.722	6.838
324.655	60.712	6.961
329.377	60.677	7.455
334.168	60.645	7.336
339.028	60.666	7.609
343.959	60.585	7.553
348.962	60.563	7.826
354.038	60.577	7.907
359.188	60.521	8.227
364.412	60.520	8.424
369.713	60.529	8.635
375.090	60.460	9.043
380.546	60.448	9.419
386.081	60.458	9.786
391.697	60.456	9.834
397.395	60.443	10.084
403.175	60.417	10.311
409.039	60.422	10.558
414.989	60.382	10.825
421.025	60.367	10.925
427.149	60.337	11.217
433.362	60.340	11.735
439.665	60.344	11.962
446.060	60.319	12.353
452.548	60.335	12.654
459.131	60.375	12.719
465.809	60.313	12.777
472.584	60.294	13.081
479.458	60.262	13.576
486.432	60.287	13.858
493.507	60.221	13.791
500.686	60.189	14.524
507.968	60.179	14.922
515.357	60.181	15.296
522.853	60.170	15.607
530.458	60.109	16.009
538.174	60.115	16.588
546.002	60.086	16.854
553.943	60.088	17.524
562.001	60.107	18.046
570.175	60.086	18.413
578.469	60.071	18.910
586.883	60.079	19.501
595.419	60.022	19.866
604.080	60.028	20.567
612.866	60.046	21.226
621.780	60.063	21.709
630.824	59.985	22.170
640.000	60.056	23.157
649.309	60.038	23.673
658.753	60.030	24.422
668.335	60.144	25.354
678.056	60.168	25.612
687.919	60.188	26.319
697.925	60.180	26.706
708.076	60.184	27.494
718.376	60.228	28.196
728.825	60.248	28.852
739.426	60.280	29.540
750.181	60.304	30.259
761.093	60.338	30.978
772.163	60.384	31.701
783.394	60.446	32.542
794.789	60.506	32.957
806.349	60.512	33.405
818.078	60.446	34.125
829.977	60.507	36.254
842.050	60.683	36.750
854.297	60.774	37.413
866.724	60.932	37.367
879.330	60.882	37.473
892.120	60.743	38.551
905.097	60.788	40.280
918.262	60.960	41.736
931.618	61.063	42.827
945.169	61.233	43.709
958.917	61.343	44.656
972.864	61.452	45.257
987.015	61.597	46.138
1001.371	61.756	46.598
1015.937	61.879	47.726
1030.714	61.984	48.387
1045.706	62.211	49.547
1060.916	62.369	49.963
1076.347	62.535	50.235
1092.003	62.706	50.880
1107.887	62.867	51.298
1124.001	63.062	51.709
1140.350	63.228	52.119
1156.937	63.378	52.622
1173.765	63.564	52.821
1190.838	63.708	53.376
1208.159	63.950	54.257
1225.732	64.146	53.906
1243.561	64.366	53.873
1261.649	64.517	54.325
1280.000	64.687	54.051
1298.618	64.850	54.415
1317.507	65.032	54.778
1336.670	65.218	54.939
1356.113	65.387	54.883
1375.838	65.611	54.869
1395.850	65.740	55.056
1416.153	65.897	55.925
1436.751	66.174	55.873
1457.649	66.401	55.680
1478.851	66.649	55.750
1500.362	66.907	55.666
1522.185	67.177	55.593
1544.326	67.484	55.557
1566.789	67.766	55.490
1589.578	68.157	55.760
1612.699	68.465	55.730
1636.156	68.619	54.985
1659.955	68.655	54.352
1684.099	68.659	53.879
1708.595	68.729	53.420
1733.447	68.863	52.560
1758.661	69.042	51.551
1784.241	69.293	50.567
1810.193	69.627	50.389
1836.523	69.946	49.186
1863.236	70.261	47.963
1890.338	70.562	46.435
1917.833	70.846	44.850
1945.729	71.067	42.918
1974.030	71.355	41.558
2002.743	71.584	39.312
2031.873	71.801	36.925
2061.428	71.928	34.642
2091.412	72.093	32.253
2121.832	72.139	29.756
2152.695	72.135	26.701
2184.007	72.036	24.597
2215.774	72.000	22.368
2248.003	71.923	20.052
2280.701	71.780	17.774
2313.874	71.607	15.690
2347.530	71.381	14.511
2381.676	71.169	12.962
2416.318	70.959	11.933
2451.464	70.733	10.866
2487.122	70.474	10.358
2523.298	70.302	10.017
2560.000	70.053	9.981
2597.236	69.950	10.159
2635.014	69.853	9.901
2673.341	69.738	9.574
2712.226	69.507	9.170
2751.676	69.381	9.316
2791.700	69.217	9.630
2832.306	69.060	9.634
2873.503	68.930	10.377
2915.299	68.801	9.981
2957.703	68.672	10.975
3000.724	68.539	11.845
3044.370	68.443	12.738
3088.652	68.338	13.331
3133.577	68.296	14.554
3179.156	68.319	15.838
3225.398	68.341	16.992
3272.312	68.423	18.251
3319.909	68.457	19.057
3368.198	68.564	20.302
3417.190	68.711	21.536
3466.894	68.870	22.240
3517.321	69.020	23.388
3568.482	69.218	24.534
3620.387	69.444	25.445
3673.046	69.823	25.877
3726.472	70.112	26.126
3780.675	70.476	26.159
3835.666	70.917	25.430
3891.457	71.318	24.539
3948.060	71.737	23.612
4005.486	72.212	22.123
4063.747	72.723	18.993
4122.855	73.042	15.729
4182.824	73.267	11.933
4243.664	73.320	6.912
4305.390	73.137	2.640
4368.013	72.816	-1.768
4431.547	72.438	-4.650
4496.005	71.940	-7.908
4561.401	71.389	-9.976
4627.749	70.903	-12.160
4695.061	70.275	-13.800
4763.352	69.635	-14.498
4832.637	69.078	-14.279
4902.929	68.508	-14.062
4974.244	68.011	-13.058
5046.596	67.551	-12.290
5120.000	67.143	-10.801
5194.472	66.645	-8.022
5270.027	66.473	-5.630
5346.682	66.187	-3.595
5424.451	65.953	-1.525
5503.352	65.690	0.714
5583.399	65.421	3.825
5664.612	65.259	6.377
5747.006	65.108	9.137
5830.598	65.022	11.666
5915.406	64.921	13.712
6001.447	64.922	16.358
6088.740	64.844	18.735
6177.303	64.895	21.109
6267.154	64.957	23.484
6358.312	64.921	25.841
6450.796	64.956	28.143
6544.625	65.044	31.224
6639.818	65.170	33.878
6736.397	65.269	36.503
6834.380	65.428	39.128
6933.789	65.633	42.239
7034.643	65.944	45.019
7136.964	66.199	48.017
7240.773	66.488	50.731
7346.093	66.848	53.837
7452.944	67.321	56.556
7561.350	67.893	59.477
7671.332	68.359	61.449
7782.915	68.998	63.870
7896.120	69.568	65.768
8010.971	70.289	67.226
8127.493	70.989	69.452
8245.711	72.005	70.668
8365.647	73.155	71.259
8487.328	74.434	70.477
8610.779	75.996	68.843
8736.026	77.822	64.004
8863.095	79.741	53.679
8992.011	81.250	37.351
9122.803	81.471	16.325
9255.497	80.255	-2.088
9390.121	78.441	-12.569
9526.704	76.756	-17.635
9665.273	75.249	-20.325
9805.857	74.041	-20.635
9948.487	73.045	-19.124
10093.191	72.287	-17.775
10240.000	71.706	-15.750
10388.944	71.408	-13.299
10540.055	71.115	-11.506
10693.363	71.017	-9.679
10848.902	71.030	-8.474
11006.703	71.182	-7.931
11166.799	71.667	-7.469
11329.224	72.200	-9.700
11494.012	72.627	-13.215
11661.195	73.132	-19.300
11830.812	73.363	-27.710
12002.895	73.204	-36.427
12177.480	72.769	-45.310
12354.606	72.133	-53.274
12534.309	71.377	-60.699
12716.624	70.597	-66.895
12901.592	69.956	-74.377
13089.250	69.021	-83.366
13279.637	67.827	-92.914
13472.794	66.485	-101.512
13668.760	64.701	-113.799
13867.577	61.858	-123.604
14069.285	58.763	-128.705
14273.928	55.929	-130.878
14481.547	53.294	-130.465
14692.186	50.900	-130.281
14905.889	48.559	-128.289
15122.700	46.257	-127.336
15342.664	44.119	-125.060
15565.829	41.944	-124.086
15792.239	39.680	-124.006
16021.942	37.549	-127.859
16254.986	35.929	-132.624
16491.422	35.337	-141.655
16731.295	36.192	-150.197
16974.656	37.666	-156.028
17221.559	39.726	-160.544
17472.053	42.593	-164.142
17726.189	45.881	-171.156
17984.021	49.554	177.572
18245.605	52.856	154.398
18510.994	53.730	123.325
18780.242	53.001	103.787
19053.408	52.705	88.817
19330.547	52.388	69.244
19611.715	50.835	44.330
19896.975	47.327	25.144
