* Measurement data measured by REW V5.19
* Source: Mic in at front panel (Pink) (Realtek(R) Audio), no input selected, L, volume: no control
* Format: 256k Log Swept Sine, 1 sweep at -12.0 dBFS  With no timing reference
* Dated: Jun 27, 2021 1:37:43 PM
* REW Settings:
*  C-weighting compensation: Off
*  Target level: 75.0 dB
* Note: Etynmotic ER4XR
* Measurement: Jun 27 13:37:43
* Smoothing: None
* Frequency Step: 1/48 octave
* Start Frequency: 20.3 Hz
*
* Freq(Hz)	SPL(dB)	Phase(degrees)
20.291	65.359	27.854
20.586	65.393	27.535
20.885	65.422	27.241
21.189	65.420	26.950
21.497	65.416	26.668
21.810	65.425	26.389
22.127	65.434	26.107
22.449	65.436	25.810
22.776	65.443	25.488
23.107	65.458	25.134
23.443	65.468	24.747
23.784	65.478	24.330
24.130	65.493	23.895
24.481	65.509	23.456
24.837	65.521	23.028
25.198	65.521	22.618
25.565	65.532	22.224
25.937	65.555	21.836
26.314	65.577	21.445
26.697	65.605	21.051
27.085	65.621	20.670
27.479	65.620	20.318
27.879	65.631	20.006
28.284	65.633	19.727
28.696	65.644	19.461
29.113	65.669	19.186
29.537	65.682	18.887
29.966	65.690	18.565
30.402	65.689	18.232
30.844	65.690	17.904
31.293	65.702	17.589
31.748	65.711	17.280
32.210	65.719	16.953
32.678	65.708	16.589
33.154	65.712	16.187
33.636	65.724	15.775
34.125	65.727	15.383
34.621	65.734	15.024
35.125	65.746	14.682
35.636	65.761	14.340
36.154	65.785	13.999
36.680	65.810	13.679
37.214	65.830	13.395
37.755	65.838	13.131
38.304	65.836	12.859
38.861	65.834	12.570
39.427	65.805	12.287
40.000	65.774	12.030
40.582	65.779	11.778
41.172	65.785	11.491
41.771	65.780	11.171
42.379	65.775	10.852
42.995	65.784	10.545
43.620	65.799	10.239
44.255	65.805	9.940
44.898	65.805	9.661
45.552	65.805	9.385
46.214	65.811	9.097
46.886	65.812	8.817
47.568	65.804	8.557
48.260	65.796	8.302
48.962	65.774	8.043
49.674	65.745	7.773
50.397	65.737	7.495
51.130	65.740	7.234
51.874	65.749	6.987
52.628	65.751	6.741
53.394	65.733	6.522
54.170	65.728	6.320
54.958	65.740	6.098
55.758	65.748	5.872
56.569	65.755	5.625
57.391	65.754	5.351
58.226	65.742	5.107
59.073	65.734	4.828
59.932	65.724	4.525
60.804	65.706	4.309
61.688	65.695	4.059
62.586	65.686	3.762
63.496	65.685	3.540
64.420	65.689	3.302
65.357	65.676	3.053
66.307	65.658	2.844
67.272	65.652	2.631
68.250	65.647	2.420
69.243	65.635	2.221
70.250	65.619	2.037
71.272	65.600	1.842
72.309	65.578	1.602
73.360	65.559	1.390
74.427	65.569	1.216
75.510	65.572	0.999
76.608	65.558	0.812
77.723	65.550	0.610
78.853	65.542	0.406
80.000	65.533	0.192
81.164	65.528	-0.073
82.344	65.514	-0.372
83.542	65.497	-0.706
84.757	65.480	-1.022
85.990	65.452	-1.266
87.241	65.419	-1.476
88.510	65.382	-1.637
89.797	65.340	-1.753
91.103	65.309	-1.893
92.428	65.290	-2.033
93.773	65.264	-2.176
95.137	65.258	-2.305
96.520	65.245	-2.465
97.924	65.230	-2.590
99.349	65.197	-2.734
100.794	65.152	-2.867
102.260	65.113	-2.954
103.747	65.107	-3.043
105.256	65.098	-3.146
106.787	65.092	-3.222
108.340	65.079	-3.423
109.916	65.041	-3.577
111.515	65.005	-3.721
113.137	64.989	-3.924
114.783	64.958	-4.146
116.452	64.912	-4.319
118.146	64.861	-4.326
119.865	64.797	-4.245
121.608	64.798	-4.207
123.377	64.788	-4.252
125.171	64.768	-4.334
126.992	64.764	-4.373
128.839	64.746	-4.426
130.713	64.696	-4.500
132.615	64.657	-4.537
134.543	64.652	-4.631
136.500	64.637	-4.747
138.486	64.599	-4.807
140.500	64.563	-4.851
142.544	64.538	-4.901
144.617	64.517	-4.937
146.721	64.510	-4.963
148.855	64.461	-5.023
151.020	64.414	-5.094
153.217	64.399	-5.123
155.445	64.368	-5.002
157.706	64.364	-4.857
160.000	64.354	-4.822
162.327	64.347	-4.842
164.688	64.357	-4.905
167.084	64.334	-4.976
169.514	64.258	-5.023
171.980	64.163	-4.931
174.481	64.090	-4.816
177.019	64.027	-4.737
179.594	63.953	-4.703
182.206	63.932	-4.677
184.856	63.962	-4.645
187.545	63.984	-4.635
190.273	63.980	-4.632
193.041	63.977	-4.613
195.849	63.979	-4.570
198.697	63.945	-4.528
201.587	63.882	-4.440
204.520	63.866	-4.249
207.494	63.874	-4.127
210.512	63.843	-4.100
213.574	63.801	-4.141
216.681	63.763	-4.151
219.833	63.698	-3.886
223.030	63.674	-3.629
226.274	63.667	-3.535
229.565	63.649	-3.439
232.905	63.634	-3.329
236.292	63.618	-3.202
239.729	63.593	-3.079
243.216	63.570	-3.026
246.754	63.535	-2.954
250.343	63.491	-2.854
253.984	63.448	-2.676
257.678	63.431	-2.135
261.426	63.457	-1.968
265.229	63.445	-1.979
269.087	63.414	-1.927
273.001	63.373	-1.699
276.972	63.359	-1.433
281.000	63.323	-1.243
285.088	63.313	-0.940
289.234	63.346	-0.549
293.441	63.370	-0.759
297.710	63.329	-0.794
302.040	63.297	-0.655
306.433	63.286	-0.483
310.890	63.284	-0.292
315.412	63.268	-0.146
320.000	63.211	-0.121
324.655	63.187	0.173
329.377	63.180	0.454
334.168	63.161	0.705
339.028	63.152	0.978
343.959	63.119	1.093
348.962	63.088	1.305
354.038	63.091	1.566
359.188	63.087	1.799
364.412	63.065	2.056
369.713	63.035	2.298
375.090	63.012	2.539
380.546	63.004	2.834
386.081	62.990	3.120
391.697	62.979	3.404
397.395	62.968	3.672
403.175	62.947	4.003
409.039	62.950	4.316
414.989	62.924	4.505
421.025	62.898	4.818
427.149	62.880	5.151
433.362	62.892	5.684
439.665	62.892	5.904
446.060	62.881	6.271
452.548	62.890	6.745
459.131	62.956	6.784
465.809	62.899	6.840
472.584	62.877	7.127
479.458	62.856	7.587
486.432	62.883	7.916
493.507	62.818	7.888
500.686	62.794	8.562
507.968	62.808	9.035
515.357	62.813	9.328
522.853	62.806	9.675
530.458	62.749	9.991
538.174	62.774	10.633
546.002	62.755	10.906
553.943	62.754	11.517
562.001	62.765	11.999
570.175	62.769	12.341
578.469	62.749	12.798
586.883	62.779	13.328
595.419	62.715	13.697
604.080	62.729	14.384
612.866	62.749	14.963
621.780	62.777	15.297
630.824	62.696	15.830
640.000	62.780	16.740
649.309	62.762	17.248
658.753	62.755	18.002
668.335	62.879	18.819
678.056	62.903	19.076
687.919	62.923	19.693
697.925	62.927	20.028
708.076	62.932	20.762
718.376	62.977	21.388
728.825	63.000	22.011
739.426	63.031	22.685
750.181	63.060	23.355
761.093	63.093	24.073
772.163	63.122	24.797
783.394	63.173	25.627
794.789	63.222	26.234
806.349	63.249	27.191
818.078	63.338	27.988
829.977	63.431	29.178
842.050	63.553	29.289
854.297	63.599	29.947
866.724	63.716	30.307
879.330	63.721	31.304
892.120	63.843	32.006
905.097	63.905	32.395
918.262	64.019	33.301
931.618	64.094	34.126
945.169	64.239	34.796
958.917	64.331	35.444
972.864	64.426	35.924
987.015	64.567	36.702
1001.371	64.725	36.923
1015.937	64.837	37.855
1030.714	64.935	38.314
1045.706	65.149	39.246
1060.916	65.307	39.451
1076.347	65.460	39.513
1092.003	65.619	39.922
1107.887	65.760	40.072
1124.001	65.936	40.248
1140.350	66.087	40.406
1156.937	66.212	40.649
1173.765	66.369	40.578
1190.838	66.491	40.866
1208.159	66.701	41.509
1225.732	66.863	40.851
1243.561	67.050	40.546
1261.649	67.153	40.757
1280.000	67.276	40.268
1298.618	67.389	40.345
1317.507	67.521	40.501
1336.670	67.650	40.422
1356.113	67.755	40.139
1375.838	67.920	39.936
1395.850	67.977	39.978
1416.153	68.056	40.681
1436.751	68.256	40.499
1457.649	68.413	40.179
1478.851	68.573	40.181
1500.362	68.740	40.032
1522.185	68.914	39.937
1544.326	69.128	39.909
1566.789	69.312	39.867
1589.578	69.595	40.299
1612.699	69.794	40.411
1636.156	69.837	39.827
1659.955	69.759	39.470
1684.099	69.645	39.332
1708.595	69.587	39.265
1733.447	69.601	38.891
1758.661	69.655	38.441
1784.241	69.776	38.139
1810.193	69.989	38.713
1836.523	70.184	38.430
1863.236	70.388	38.199
1890.338	70.583	37.828
1917.833	70.778	37.522
1945.729	70.920	36.997
1974.030	71.152	37.153
2002.743	71.352	36.548
2031.873	71.562	35.883
2061.428	71.717	35.377
2091.412	71.941	34.822
2121.832	72.086	34.158
2152.695	72.218	32.897
2184.007	72.292	32.527
2215.774	72.464	31.873
2248.003	72.634	30.997
2280.701	72.767	29.937
2313.874	72.896	28.812
2347.530	72.994	28.355
2381.676	73.119	27.208
2416.318	73.260	26.267
2451.464	73.376	24.876
2487.122	73.441	23.646
2523.298	73.547	22.216
2560.000	73.506	20.953
2597.236	73.560	20.024
2635.014	73.595	18.844
2673.341	73.624	17.706
2712.226	73.548	16.427
2751.676	73.578	15.557
2791.700	73.559	14.732
2832.306	73.534	13.478
2873.503	73.513	12.870
2915.299	73.473	11.006
2957.703	73.408	10.526
3000.724	73.318	9.889
3044.370	73.247	9.197
3088.652	73.140	8.217
3133.577	73.077	7.916
3179.156	73.059	7.677
3225.398	73.017	7.270
3272.312	73.023	6.999
3319.909	72.949	6.235
3368.198	72.918	5.997
3417.190	72.898	5.808
3466.894	72.858	5.157
3517.321	72.779	5.124
3568.482	72.726	5.210
3620.387	72.670	5.219
3673.046	72.744	4.987
3726.472	72.694	4.796
3780.675	72.707	4.714
3835.666	72.777	4.210
3891.457	72.789	3.908
3948.060	72.821	4.018
4005.486	72.905	4.134
4063.747	73.057	3.224
4122.855	73.078	2.840
4182.824	73.116	2.550
4243.664	73.126	1.348
4305.390	73.063	0.812
4368.013	73.007	-0.318
4431.547	72.983	-0.646
4496.005	72.891	-2.034
4561.401	72.772	-2.899
4627.749	72.725	-4.371
4695.061	72.545	-5.875
4763.352	72.344	-7.000
4832.637	72.203	-7.707
4902.929	71.998	-8.913
4974.244	71.813	-9.689
5046.596	71.602	-10.959
5120.000	71.383	-11.725
5194.472	71.064	-11.623
5270.027	70.773	-11.869
5346.682	70.467	-11.485
5424.451	70.182	-11.464
5503.352	69.811	-11.104
5583.399	69.387	-9.769
5664.612	69.029	-8.716
5747.006	68.655	-7.168
5830.598	68.336	-5.555
5915.406	67.998	-4.155
6001.447	67.756	-1.898
6088.740	67.461	0.341
6177.303	67.297	2.725
6267.154	67.174	5.288
6358.312	66.970	7.928
6450.796	66.872	10.561
6544.625	66.825	14.015
6639.818	66.846	17.083
6736.397	66.830	20.075
6834.380	66.909	23.174
6933.789	67.045	26.797
7034.643	67.291	30.116
7136.964	67.510	33.634
7240.773	67.798	36.888
7346.093	68.174	40.472
7452.944	68.708	43.530
7561.350	69.315	46.803
7671.332	69.920	49.458
7782.915	70.796	52.041
7896.120	71.675	53.584
8010.971	72.784	53.908
8127.493	73.946	53.733
8245.711	75.472	50.709
8365.647	77.050	44.166
8487.328	78.336	32.539
8610.779	78.929	17.795
8736.026	78.508	3.005
8863.095	77.403	-8.212
8992.011	76.146	-13.994
9122.803	75.079	-16.667
9255.497	74.251	-18.233
9390.121	73.634	-17.923
9526.704	73.370	-17.248
9665.273	73.324	-17.919
9805.857	73.578	-19.515
9948.487	74.000	-22.859
10093.191	74.471	-30.898
10240.000	74.513	-43.060
10388.944	73.743	-57.190
10540.055	71.850	-69.354
10693.363	69.553	-76.340
10848.902	67.194	-79.224
11006.703	64.962	-79.083
11166.799	63.100	-75.834
11329.224	61.385	-72.371
11494.012	59.701	-67.339
11661.195	58.348	-61.986
11830.812	57.101	-56.227
12002.895	55.987	-49.814
12177.480	54.984	-43.254
12354.606	54.124	-36.165
12534.309	53.408	-29.465
12716.624	52.694	-21.708
12901.592	52.191	-14.562
13089.250	51.658	-7.013
13279.637	51.425	0.805
13472.794	51.160	7.998
13668.760	51.021	15.229
13867.577	50.924	22.023
14069.285	50.926	28.635
14273.928	51.351	33.998
14481.547	51.959	38.761
14692.186	52.925	40.662
14905.889	53.974	40.902
15122.700	54.990	36.154
15342.664	55.569	27.992
15565.829	55.116	16.756
15792.239	53.499	6.981
16021.942	51.111	0.718
16254.986	48.742	-0.687
16491.422	46.595	-0.177
16731.295	45.070	2.033
16974.656	43.438	6.350
17221.559	41.942	11.344
17472.053	40.687	16.954
17726.189	39.404	21.638
17984.021	38.222	26.929
18245.605	37.153	31.878
18510.994	35.994	32.588
18780.242	34.497	27.937
19053.408	31.556	15.693
19330.547	25.931	15.175
19611.715	18.681	32.800
19896.975	7.758	78.741
