* Measurement data measured by REW V5.19
* Source: Mic in at front panel (Pink) (Realtek(R) Audio), no input selected, L, volume: no control
* Format: 256k Log Swept Sine, 1 sweep at -12.0 dBFS  With no timing reference
* Dated: Jun 27, 2021 2:59:20 PM
* REW Settings:
*  C-weighting compensation: Off
*  Target level: 75.0 dB
* Note: KBEAR ST1
* Measurement: Jun 27 14:59:20
* Smoothing: None
* Frequency Step: 1/48 octave
* Start Frequency: 20.3 Hz
*
* Freq(Hz)	SPL(dB)	Phase(degrees)
20.291	77.022	-144.892
20.586	77.045	-145.576
20.885	77.070	-146.172
21.189	77.072	-146.769
21.497	77.075	-147.386
21.810	77.092	-148.026
22.127	77.106	-148.688
22.449	77.112	-149.365
22.776	77.121	-150.057
23.107	77.137	-150.769
23.443	77.148	-151.506
23.784	77.159	-152.266
24.130	77.172	-153.033
24.481	77.187	-153.783
24.837	77.198	-154.500
25.198	77.198	-155.188
25.565	77.211	-155.866
25.937	77.237	-156.556
26.314	77.258	-157.267
26.697	77.282	-157.982
27.085	77.291	-158.676
27.479	77.282	-159.332
27.879	77.285	-159.952
28.284	77.279	-160.557
28.696	77.279	-161.163
29.113	77.288	-161.771
29.537	77.284	-162.373
29.966	77.277	-162.967
30.402	77.267	-163.566
30.844	77.264	-164.189
31.293	77.273	-164.841
31.748	77.271	-165.509
32.210	77.262	-166.173
32.678	77.231	-166.821
33.154	77.219	-167.457
33.636	77.222	-168.093
34.125	77.220	-168.735
34.621	77.221	-169.389
35.125	77.220	-170.046
35.636	77.216	-170.686
36.154	77.218	-171.286
36.680	77.227	-171.849
37.214	77.235	-172.408
37.755	77.229	-172.995
38.304	77.206	-173.601
38.861	77.181	-174.194
39.427	77.134	-174.767
40.000	77.086	-175.341
40.582	77.069	-175.919
41.172	77.051	-176.483
41.771	77.027	-177.037
42.379	77.011	-177.614
42.995	77.007	-178.220
43.620	77.001	-178.819
44.255	76.984	-179.381
44.898	76.960	-179.914
45.552	76.936	179.551
46.214	76.917	179.003
46.886	76.889	178.468
47.568	76.854	177.969
48.260	76.823	177.462
48.962	76.776	176.907
49.674	76.715	176.358
50.397	76.681	175.842
51.130	76.664	175.296
51.874	76.643	174.743
52.628	76.614	174.259
53.394	76.574	173.787
54.170	76.540	173.290
54.958	76.520	172.823
55.758	76.500	172.358
56.569	76.478	171.866
57.391	76.452	171.351
58.226	76.411	170.807
59.073	76.365	170.288
59.932	76.330	169.771
60.804	76.281	169.225
61.688	76.222	168.744
62.586	76.182	168.274
63.496	76.147	167.785
64.420	76.111	167.347
65.357	76.068	166.883
66.307	76.014	166.413
67.272	75.972	165.966
68.250	75.932	165.500
69.243	75.884	165.050
70.250	75.829	164.594
71.272	75.766	164.173
72.309	75.704	163.762
73.360	75.654	163.357
74.427	75.627	162.924
75.510	75.585	162.505
76.608	75.533	162.098
77.723	75.480	161.655
78.853	75.427	161.250
80.000	75.380	160.823
81.164	75.327	160.321
82.344	75.276	159.860
83.542	75.213	159.292
84.757	75.163	158.823
85.990	75.088	158.253
87.241	75.004	157.908
88.510	74.925	157.529
89.797	74.836	157.237
91.103	74.755	156.914
92.428	74.690	156.591
93.773	74.614	156.263
95.137	74.569	155.943
96.520	74.510	155.556
97.924	74.440	155.272
99.349	74.359	155.001
100.794	74.258	154.793
102.260	74.182	154.353
103.747	74.111	154.082
105.256	74.054	153.795
106.787	74.049	153.444
108.340	73.926	153.144
109.916	73.850	152.874
111.515	73.736	152.629
113.137	73.694	152.147
114.783	73.603	151.834
116.452	73.497	151.736
118.146	73.377	151.399
119.865	73.360	154.657
121.608	73.278	151.110
123.377	73.171	151.275
125.171	73.047	150.941
126.992	73.006	150.618
128.839	72.929	150.444
130.713	72.853	150.359
132.615	72.739	149.876
134.543	72.611	149.809
136.500	72.573	149.410
138.486	72.493	149.309
140.500	72.394	149.209
142.544	72.293	148.994
144.617	72.173	149.033
146.721	72.080	148.829
148.855	71.996	148.229
151.020	71.918	148.853
153.217	71.942	148.544
155.445	71.702	148.493
157.706	71.637	148.124
160.000	71.729	149.044
162.327	71.560	151.027
164.688	70.599	162.384
167.084	70.899	148.968
169.514	70.616	147.066
171.980	70.983	147.212
174.481	70.811	148.523
177.019	70.545	149.463
179.594	70.367	149.121
182.206	70.237	149.246
184.856	70.187	149.527
187.545	70.098	150.043
190.273	69.727	150.329
193.041	69.624	151.603
195.849	69.570	153.255
198.697	69.366	154.591
201.587	69.541	157.374
204.520	69.956	159.797
207.494	70.388	159.744
210.512	70.626	157.125
213.574	70.636	154.940
216.681	70.567	153.722
219.833	70.354	152.655
223.030	70.256	152.288
226.274	70.111	152.279
229.565	70.011	152.590
232.905	69.839	151.264
236.292	69.779	151.354
239.729	69.653	151.203
243.216	69.543	151.071
246.754	69.421	151.079
250.343	69.286	151.111
253.984	69.156	151.295
257.678	69.062	151.833
261.426	69.011	151.931
265.229	68.917	151.935
269.087	68.804	152.017
273.001	68.690	152.264
276.972	68.598	152.427
281.000	68.488	152.810
285.088	68.403	153.163
289.234	68.357	153.538
293.441	68.300	153.444
297.710	68.191	153.474
302.040	68.087	153.669
306.433	68.003	153.915
310.890	67.924	154.232
315.412	67.834	154.428
320.000	67.702	154.611
324.655	67.607	155.013
329.377	67.528	155.373
334.168	67.436	155.758
339.028	67.369	156.190
343.959	67.254	156.417
348.962	67.153	156.763
354.038	67.081	157.161
359.188	67.007	157.548
364.412	66.918	157.949
369.713	66.817	158.371
375.090	66.723	158.792
380.546	66.643	159.254
386.081	66.561	159.713
391.697	66.484	160.155
397.395	66.404	160.642
403.175	66.318	161.158
409.039	66.249	161.667
414.989	66.157	162.087
421.025	66.066	162.569
427.149	65.978	163.127
433.362	65.927	163.892
439.665	65.859	164.337
446.060	65.781	164.935
452.548	65.723	165.635
459.131	65.723	165.882
465.809	65.600	166.155
472.584	65.518	166.752
479.458	65.432	167.405
486.432	65.395	168.033
493.507	65.270	168.227
500.686	65.182	169.181
507.968	65.132	169.912
515.357	65.073	170.497
522.853	65.006	171.104
530.458	64.886	171.703
538.174	64.850	172.667
546.002	64.776	173.171
553.943	64.714	174.077
562.001	64.665	174.866
570.175	64.612	175.507
578.469	64.530	176.219
586.883	64.506	177.116
595.419	64.386	177.767
604.080	64.338	178.752
612.866	64.305	179.634
621.780	64.270	-179.685
630.824	64.139	-178.851
640.000	64.169	-177.619
649.309	64.089	-176.808
658.753	64.030	-175.691
668.335	64.096	-174.559
678.056	64.067	-173.973
687.919	64.035	-173.044
697.925	63.984	-172.369
708.076	63.942	-171.314
718.376	63.930	-170.337
728.825	63.904	-169.387
739.426	63.879	-168.374
750.181	63.862	-167.370
761.093	63.838	-166.344
772.163	63.820	-165.251
783.394	63.822	-164.065
794.789	63.818	-163.105
806.349	63.794	-161.822
818.078	63.832	-160.687
829.977	63.870	-159.134
842.050	63.942	-158.669
854.297	63.937	-157.648
866.724	64.004	-156.955
879.330	63.961	-155.594
892.120	64.025	-154.506
905.097	64.035	-153.771
918.262	64.098	-152.491
931.618	64.116	-151.321
945.169	64.208	-150.288
958.917	64.241	-149.178
972.864	64.281	-148.354
987.015	64.355	-147.179
1001.371	64.441	-146.457
1015.937	64.514	-144.859
1030.714	64.592	-143.973
1045.706	64.766	-142.745
1060.916	64.866	-142.182
1076.347	64.964	-141.719
1092.003	65.066	-140.884
1107.887	65.154	-140.285
1124.001	65.268	-139.690
1140.350	65.367	-139.018
1156.937	65.437	-138.292
1173.765	65.540	-137.847
1190.838	65.610	-137.043
1208.159	65.767	-135.889
1225.732	65.879	-135.984
1243.561	66.012	-135.725
1261.649	66.070	-134.981
1280.000	66.147	-134.897
1298.618	66.218	-134.224
1317.507	66.303	-133.499
1336.670	66.389	-132.957
1356.113	66.455	-132.636
1375.838	66.576	-132.257
1395.850	66.600	-131.583
1416.153	66.646	-130.241
1436.751	66.806	-129.800
1457.649	66.924	-129.455
1478.851	67.057	-128.832
1500.362	67.191	-128.294
1522.185	67.342	-127.718
1544.326	67.530	-127.092
1566.789	67.689	-126.415
1589.578	67.951	-125.348
1612.699	68.134	-124.551
1636.156	68.163	-124.432
1659.955	68.075	-124.100
1684.099	67.953	-123.568
1708.595	67.892	-122.966
1733.447	67.901	-122.686
1758.661	67.958	-122.466
1784.241	68.083	-122.187
1810.193	68.298	-121.013
1836.523	68.496	-120.735
1863.236	68.702	-120.409
1890.338	68.898	-120.263
1917.833	69.084	-120.046
1945.729	69.218	-120.086
1974.030	69.440	-119.410
2002.743	69.612	-119.494
2031.873	69.795	-119.598
2061.428	69.919	-119.518
2091.412	70.110	-119.414
2121.832	70.215	-119.378
2152.695	70.313	-119.854
2184.007	70.356	-119.393
2215.774	70.500	-119.131
2248.003	70.643	-119.070
2280.701	70.757	-119.077
2313.874	70.876	-119.067
2347.530	70.969	-118.389
2381.676	71.103	-118.294
2416.318	71.262	-117.912
2451.464	71.412	-117.852
2487.122	71.544	-117.546
2523.298	71.763	-117.344
2560.000	71.892	-117.106
2597.236	72.150	-116.874
2635.014	72.394	-117.198
2673.341	72.613	-117.690
2712.226	72.719	-118.393
2751.676	72.919	-118.744
2791.700	73.077	-119.080
2832.306	73.224	-119.915
2873.503	73.384	-120.176
2915.299	73.525	-121.750
2957.703	73.641	-122.073
3000.724	73.735	-122.612
3044.370	73.840	-123.272
3088.652	73.912	-124.333
3133.577	74.021	-124.813
3179.156	74.171	-125.357
3225.398	74.282	-126.153
3272.312	74.427	-126.914
3319.909	74.471	-128.204
3368.198	74.540	-129.001
3417.190	74.597	-129.704
3466.894	74.627	-130.761
3517.321	74.620	-131.133
3568.482	74.651	-131.382
3620.387	74.683	-131.781
3673.046	74.834	-132.534
3726.472	74.851	-133.331
3780.675	74.906	-134.058
3835.666	74.991	-135.225
3891.457	74.988	-136.098
3948.060	74.976	-136.396
4005.486	75.000	-136.343
4063.747	75.105	-136.983
4122.855	75.119	-136.904
4182.824	75.188	-136.716
4243.664	75.247	-137.493
4305.390	75.242	-137.636
4368.013	75.248	-138.333
4431.547	75.297	-138.183
4496.005	75.291	-139.017
4561.401	75.278	-139.260
4627.749	75.359	-140.079
4695.061	75.333	-140.875
4763.352	75.312	-141.273
4832.637	75.386	-141.243
4902.929	75.439	-141.774
4974.244	75.549	-141.950
5046.596	75.675	-142.794
5120.000	75.825	-143.274
5194.472	75.915	-143.096
5270.027	76.081	-143.468
5346.682	76.272	-143.548
5424.451	76.526	-144.400
5503.352	76.728	-145.437
5583.399	76.896	-146.107
5664.612	77.111	-147.705
5747.006	77.336	-149.565
5830.598	77.395	-150.258
5915.406	77.841	-153.028
6001.447	78.201	-156.378
6088.740	78.392	-160.613
6177.303	78.589	-165.463
6267.154	78.644	-170.851
6358.312	78.434	-176.530
6450.796	78.115	177.776
6544.625	77.656	173.187
6639.818	77.096	168.819
6736.397	76.373	165.129
6834.380	75.640	162.276
6933.789	74.898	160.740
7034.643	74.220	159.600
7136.964	73.478	159.340
7240.773	72.766	159.298
7346.093	72.116	160.152
7452.944	71.576	160.961
7561.350	71.069	162.532
7671.332	70.492	164.038
7782.915	70.119	166.136
7896.120	69.663	168.014
8010.971	69.316	169.787
8127.493	68.905	172.640
8245.711	68.759	175.084
8365.647	68.651	177.655
8487.328	68.554	179.874
8610.779	68.602	-177.051
8736.026	68.780	-174.354
8863.095	69.047	-172.294
8992.011	69.442	-169.612
9122.803	70.014	-167.396
9255.497	70.758	-166.515
9390.121	71.641	-165.619
9526.704	72.842	-165.922
9665.273	74.284	-169.419
9805.857	76.072	-176.787
9948.487	77.829	168.722
10093.191	78.419	144.126
10240.000	76.808	120.673
10388.944	74.291	107.222
10540.055	71.674	100.746
10693.363	69.425	98.650
10848.902	67.437	98.619
11006.703	65.668	99.959
11166.799	64.280	103.221
11329.224	63.015	105.912
11494.012	61.738	109.779
11661.195	60.753	113.490
11830.812	59.860	117.292
12002.895	59.031	121.808
12177.480	58.301	126.079
12354.606	57.699	130.825
12534.309	57.195	135.207
12716.624	56.663	140.474
12901.592	56.347	145.168
13089.250	55.934	150.292
13279.637	55.748	155.259
13472.794	55.535	160.136
13668.760	55.368	165.226
13867.577	55.135	170.208
14069.285	54.996	175.461
14273.928	55.140	-179.477
14481.547	55.425	-174.028
14692.186	56.066	-169.636
14905.889	56.833	-164.350
15122.700	57.718	-160.412
15342.664	58.839	-155.921
15565.829	60.096	-152.670
15792.239	61.465	-150.563
16021.942	63.178	-151.443
16254.986	65.801	-157.927
16491.422	68.823	179.430
16731.295	69.087	140.736
16974.656	65.809	118.457
17221.559	62.817	111.510
17472.053	60.705	111.220
17726.189	59.169	112.495
17984.021	58.131	115.794
18245.605	57.547	119.446
18510.994	57.484	120.888
18780.242	57.837	121.444
19053.408	58.575	115.777
19330.547	58.876	99.635
19611.715	56.905	76.949
19896.975	52.810	63.941
