* Measurement data measured by REW V5.19
* Source: Mic in at front panel (Pink) (Realtek(R) Audio), no input selected, L, volume: no control
* Format: 256k Log Swept Sine, 1 sweep at -12.0 dBFS  With no timing reference
* Dated: Jun 27, 2021 2:07:35 PM
* REW Settings:
*  C-weighting compensation: Off
*  Target level: 75.0 dB
* Note: KBEAR Neon
* Measurement: Jun 27 14:07:35
* Smoothing: None
* Frequency Step: 1/48 octave
* Start Frequency: 20.3 Hz
*
* Freq(Hz)	SPL(dB)	Phase(degrees)
20.291	67.801	52.601
20.586	67.824	52.252
20.885	67.861	52.030
21.189	67.890	51.823
21.497	67.934	51.564
21.810	68.000	51.204
22.127	68.066	50.718
22.449	68.114	50.113
22.776	68.148	49.440
23.107	68.170	48.779
23.443	68.175	48.209
23.784	68.187	47.759
24.130	68.225	47.368
24.481	68.293	46.912
24.837	68.370	46.275
25.198	68.425	45.435
25.565	68.462	44.485
25.937	68.475	43.583
26.314	68.469	42.859
26.697	68.474	42.333
27.085	68.491	41.919
27.479	68.512	41.510
27.879	68.554	41.066
28.284	68.588	40.611
28.696	68.632	40.165
29.113	68.693	39.690
29.537	68.739	39.146
29.966	68.766	38.582
30.402	68.771	38.136
30.844	68.789	37.881
31.293	68.850	37.699
31.748	68.933	37.347
32.210	69.000	36.731
32.678	69.003	36.040
33.154	68.992	35.551
33.636	69.010	35.310
34.125	69.061	35.054
34.621	69.130	34.540
35.125	69.173	33.825
35.636	69.184	33.158
36.154	69.197	32.650
36.680	69.228	32.196
37.214	69.262	31.685
37.755	69.277	31.118
38.304	69.274	30.517
38.861	69.256	29.915
39.427	69.195	29.460
40.000	69.145	29.298
40.582	69.181	29.248
41.172	69.255	28.900
41.771	69.296	28.228
42.379	69.290	27.620
42.995	69.297	27.282
43.620	69.337	26.990
44.255	69.370	26.565
44.898	69.377	26.165
45.552	69.384	25.859
46.214	69.408	25.516
46.886	69.416	25.142
47.568	69.411	24.878
48.260	69.422	24.638
48.962	69.421	24.289
49.674	69.399	23.959
50.397	69.411	23.677
51.130	69.437	23.288
51.874	69.446	22.951
52.628	69.465	22.784
53.394	69.488	22.462
54.170	69.490	22.083
54.958	69.523	21.938
55.758	69.594	21.533
56.569	69.605	20.798
57.391	69.561	20.469
58.226	69.557	20.432
59.073	69.583	20.161
59.932	69.592	19.772
60.804	69.584	19.510
61.688	69.593	19.272
62.586	69.607	18.873
63.496	69.616	18.618
64.420	69.656	18.368
65.357	69.658	17.910
66.307	69.639	17.777
67.272	69.678	17.548
68.250	69.675	17.130
69.243	69.663	17.035
70.250	69.691	16.801
71.272	69.683	16.270
72.309	69.640	16.051
73.360	69.682	15.946
74.427	69.731	15.418
75.510	69.745	15.126
76.608	69.732	14.878
77.723	69.737	15.077
78.853	69.795	14.879
80.000	69.779	14.586
81.164	69.774	14.498
82.344	69.807	14.205
83.542	69.786	13.583
84.757	69.787	13.352
85.990	69.800	12.883
87.241	69.775	12.558
88.510	69.769	12.471
89.797	69.748	12.294
91.103	69.749	12.238
92.428	69.732	12.008
93.773	69.755	11.870
95.137	69.740	11.455
96.520	69.752	11.328
97.924	69.744	11.119
99.349	69.750	11.001
100.794	69.711	10.760
102.260	69.720	10.577
103.747	69.708	10.348
105.256	69.744	10.246
106.787	69.764	10.204
108.340	69.761	10.003
109.916	69.727	9.927
111.515	69.716	9.506
113.137	69.742	9.087
114.783	69.766	8.974
116.452	69.719	8.787
118.146	69.691	8.893
119.865	69.901	12.578
121.608	69.759	8.416
123.377	69.727	8.786
125.171	69.663	8.688
126.992	69.685	8.243
128.839	69.716	8.137
130.713	69.714	8.253
132.615	69.651	8.085
134.543	69.652	7.613
136.500	69.716	7.587
138.486	69.697	7.516
140.500	69.680	7.275
142.544	69.663	7.148
144.617	69.651	7.055
146.721	69.670	6.978
148.855	69.633	6.592
151.020	69.614	6.760
153.217	69.586	6.239
155.445	69.625	6.387
157.706	69.664	6.478
160.000	69.685	6.678
162.327	69.619	6.910
164.688	69.852	6.111
167.084	69.702	6.015
169.514	69.651	5.715
171.980	69.597	5.870
174.481	69.525	5.839
177.019	69.471	5.818
179.594	69.419	5.667
182.206	69.428	5.620
184.856	69.469	5.572
187.545	69.526	5.498
190.273	69.529	5.286
193.041	69.564	5.347
195.849	69.553	5.063
198.697	69.539	4.970
201.587	69.493	5.004
204.520	69.503	5.044
207.494	69.537	4.963
210.512	69.493	4.863
213.574	69.466	4.709
216.681	69.439	4.599
219.833	69.392	4.676
223.030	69.355	4.769
226.274	69.368	4.746
229.565	69.360	4.784
232.905	69.331	4.772
236.292	69.332	4.763
239.729	69.304	4.841
243.216	69.280	4.724
246.754	69.255	4.957
250.343	69.250	4.920
253.984	69.116	5.068
257.678	69.084	5.808
261.426	69.098	6.087
265.229	69.063	6.406
269.087	69.025	7.002
273.001	69.031	7.960
276.972	69.103	8.956
281.000	69.229	9.800
285.088	69.414	10.344
289.234	69.672	10.439
293.441	69.891	9.415
297.710	69.952	8.186
302.040	69.990	7.228
306.433	69.989	6.439
310.890	69.978	5.861
315.412	69.943	5.370
320.000	69.866	4.861
324.655	69.826	4.745
329.377	69.804	4.645
334.168	69.784	4.446
339.028	69.746	4.454
343.959	69.711	4.236
348.962	69.667	4.204
354.038	69.658	4.133
359.188	69.654	4.111
364.412	69.628	4.093
369.713	69.594	4.073
375.090	69.564	4.064
380.546	69.551	4.104
386.081	69.533	4.107
391.697	69.518	4.135
397.395	69.503	4.166
403.175	69.478	4.239
409.039	69.473	4.305
414.989	69.447	4.236
421.025	69.414	4.301
427.149	69.391	4.396
433.362	69.401	4.679
439.665	69.399	4.653
446.060	69.377	4.766
452.548	69.379	4.978
459.131	69.442	4.746
465.809	69.373	4.553
472.584	69.348	4.590
479.458	69.321	4.768
486.432	69.337	4.892
493.507	69.266	4.549
500.686	69.232	5.001
507.968	69.234	5.200
515.357	69.228	5.233
522.853	69.212	5.302
530.458	69.140	5.351
538.174	69.156	5.779
546.002	69.128	5.747
553.943	69.112	6.091
562.001	69.110	6.321
570.175	69.099	6.379
578.469	69.061	6.553
586.883	69.079	6.830
595.419	68.998	6.945
604.080	68.995	7.341
612.866	69.000	7.653
621.780	69.003	7.727
630.824	68.909	7.968
640.000	68.972	8.574
649.309	68.929	8.811
658.753	68.902	9.311
668.335	69.004	9.849
678.056	69.008	9.806
687.919	69.005	10.124
697.925	68.984	10.183
708.076	68.966	10.638
718.376	68.983	10.990
728.825	68.977	11.324
739.426	68.980	11.692
750.181	68.981	12.074
761.093	68.982	12.502
772.163	68.982	12.935
783.394	69.002	13.495
794.789	69.017	13.791
806.349	69.013	14.459
818.078	69.067	14.952
829.977	69.119	15.859
842.050	69.205	15.679
854.297	69.216	16.055
866.724	69.296	16.094
879.330	69.263	16.808
892.120	69.338	17.236
905.097	69.354	17.329
918.262	69.429	17.948
931.618	69.456	18.467
945.169	69.550	18.831
958.917	69.593	19.254
972.864	69.640	19.392
987.015	69.727	19.857
1001.371	69.825	19.793
1015.937	69.884	20.463
1030.714	69.923	20.625
1045.706	70.081	21.281
1060.916	70.173	21.211
1076.347	70.264	20.999
1092.003	70.359	21.135
1107.887	70.439	21.023
1124.001	70.543	20.927
1140.350	70.627	20.837
1156.937	70.679	20.847
1173.765	70.764	20.546
1190.838	70.810	20.606
1208.159	70.944	21.023
1225.732	71.029	20.156
1243.561	71.132	19.661
1261.649	71.158	19.655
1280.000	71.197	18.974
1298.618	71.227	18.896
1317.507	71.273	18.866
1336.670	71.314	18.665
1356.113	71.330	18.251
1375.838	71.403	17.887
1395.850	71.368	17.805
1416.153	71.356	18.427
1436.751	71.460	18.141
1457.649	71.515	17.741
1478.851	71.581	17.649
1500.362	71.646	17.491
1522.185	71.721	17.348
1544.326	71.830	17.303
1566.789	71.903	17.275
1589.578	72.082	17.701
1612.699	72.171	17.863
1636.156	72.101	17.342
1659.955	71.911	17.086
1684.099	71.684	17.082
1708.595	71.512	17.163
1733.447	71.409	16.997
1758.661	71.351	16.818
1784.241	71.364	16.761
1810.193	71.470	17.629
1836.523	71.560	17.634
1863.236	71.659	17.691
1890.338	71.749	17.659
1917.833	71.830	17.712
1945.729	71.865	17.591
1974.030	71.992	18.178
2002.743	72.083	18.059
2031.873	72.191	17.938
2061.428	72.242	18.017
2091.412	72.370	18.084
2121.832	72.421	18.084
2152.695	72.469	17.568
2184.007	72.468	17.957
2215.774	72.570	18.112
2248.003	72.676	18.068
2280.701	72.758	17.897
2313.874	72.848	17.694
2347.530	72.916	18.165
2381.676	73.028	17.949
2416.318	73.168	17.960
2451.464	73.298	17.483
2487.122	73.392	17.168
2523.298	73.544	16.652
2560.000	73.566	16.238
2597.236	73.691	16.100
2635.014	73.818	15.669
2673.341	73.948	15.184
2712.226	73.987	14.464
2751.676	74.143	14.055
2791.700	74.262	13.586
2832.306	74.381	12.550
2873.503	74.513	12.027
2915.299	74.635	10.114
2957.703	74.733	9.364
3000.724	74.808	8.268
3044.370	74.885	6.925
3088.652	74.912	5.136
3133.577	74.971	3.884
3179.156	75.061	2.535
3225.398	75.112	0.865
3272.312	75.183	-0.878
3319.909	75.139	-3.255
3368.198	75.101	-5.191
3417.190	75.033	-7.089
3466.894	74.912	-9.425
3517.321	74.720	-11.146
3568.482	74.525	-12.689
3620.387	74.294	-14.297
3673.046	74.153	-16.041
3726.472	73.856	-17.641
3780.675	73.589	-18.948
3835.666	73.351	-20.478
3891.457	73.035	-21.568
3948.060	72.718	-22.014
4005.486	72.444	-22.170
4063.747	72.239	-23.056
4122.855	71.908	-23.189
4182.824	71.604	-23.046
4243.664	71.272	-23.648
4305.390	70.871	-23.378
4368.013	70.484	-23.446
4431.547	70.140	-22.491
4496.005	69.750	-22.384
4561.401	69.351	-21.506
4627.749	69.051	-21.023
4695.061	68.659	-20.363
4763.352	68.284	-19.149
4832.637	68.024	-17.412
4902.929	67.753	-16.186
4974.244	67.542	-14.554
5046.596	67.355	-13.555
5120.000	67.200	-12.148
5194.472	66.971	-10.048
5270.027	66.796	-8.443
5346.682	66.627	-6.418
5424.451	66.505	-4.883
5503.352	66.308	-3.195
5583.399	66.075	-0.741
5664.612	65.921	1.279
5747.006	65.761	3.594
5830.598	65.648	5.745
5915.406	65.526	7.541
6001.447	65.498	9.981
6088.740	65.407	12.201
6177.303	65.452	14.465
6267.154	65.516	16.687
6358.312	65.490	18.874
6450.796	65.565	20.905
6544.625	65.676	23.671
6639.818	65.853	25.880
6736.397	65.982	27.942
6834.380	66.187	29.890
6933.789	66.439	32.249
7034.643	66.785	34.017
7136.964	67.081	35.894
7240.773	67.404	37.218
7346.093	67.782	38.603
7452.944	68.222	39.108
7561.350	68.567	39.898
7671.332	68.759	41.480
7782.915	69.403	44.133
7896.120	70.134	45.033
8010.971	70.997	44.459
8127.493	71.809	43.945
8245.711	72.929	41.811
8365.647	74.169	38.122
8487.328	75.495	31.605
8610.779	76.945	21.942
8736.026	78.082	6.020
8863.095	78.055	-10.393
8992.011	77.891	-32.876
9122.803	75.882	-50.089
9255.497	73.577	-61.205
9390.121	71.294	-66.989
9526.704	69.237	-69.843
9665.273	67.268	-71.657
9805.857	65.481	-71.615
9948.487	63.789	-69.678
10093.191	62.265	-67.702
10240.000	60.880	-64.748
10388.944	59.729	-61.197
10540.055	58.508	-58.210
10693.363	57.349	-54.832
10848.902	56.180	-51.234
11006.703	55.026	-47.348
11166.799	54.097	-42.056
11329.224	53.175	-37.474
11494.012	52.170	-31.920
11661.195	51.407	-26.404
11830.812	50.670	-20.949
12002.895	49.985	-15.033
12177.480	49.333	-9.079
12354.606	48.802	-2.614
12534.309	48.353	3.627
12716.624	47.841	10.725
12901.592	47.635	17.763
13089.250	47.239	24.805
13279.637	47.141	31.600
13472.794	46.986	38.280
13668.760	46.963	45.351
13867.577	46.788	52.099
14069.285	46.824	59.171
14273.928	47.090	65.765
14481.547	47.609	72.688
14692.186	48.505	77.548
14905.889	49.565	83.206
15122.700	50.755	86.902
15342.664	52.281	90.474
15565.829	53.982	91.118
15792.239	55.861	88.133
16021.942	57.984	78.234
16254.986	60.401	56.159
16491.422	60.815	16.262
16731.295	57.810	-19.183
16974.656	53.430	-38.099
17221.559	49.069	-48.236
17472.053	44.928	-51.326
17726.189	40.730	-51.640
17984.021	36.618	-44.770
18245.605	33.005	-37.228
18510.994	28.838	-29.505
18780.242	25.324	-10.315
19053.408	21.333	1.094
19330.547	17.817	20.489
19611.715	13.700	50.820
19896.975	7.296	123.568
