* Measurement data measured by REW V5.19
* Source: Mic in at front panel (Pink) (Realtek(R) Audio), no input selected, L, volume: no control
* Format: 256k Log Swept Sine, 1 sweep at -12.0 dBFS  With no timing reference
* Dated: Jun 24, 2021 8:25:43 PM
* REW Settings:
*  C-weighting compensation: Off
*  Target level: 75.0 dB
* Note: KZ ES4
* Measurement: Jun 24 20:25:43
* Smoothing: None
* Frequency Step: 1/48 octave
* Start Frequency: 20.3 Hz
*
* Freq(Hz)	SPL(dB)	Phase(degrees)
20.291	78.833	36.461
20.586	78.859	35.751
20.885	78.886	35.139
21.189	78.888	34.538
21.497	78.894	33.923
21.810	78.914	33.283
22.127	78.932	32.614
22.449	78.939	31.921
22.776	78.947	31.215
23.107	78.961	30.506
23.443	78.970	29.796
23.784	78.983	29.077
24.130	79.004	28.341
24.481	79.029	27.584
24.837	79.049	26.814
25.198	79.052	26.045
25.565	79.061	25.294
25.937	79.079	24.568
26.314	79.093	23.865
26.697	79.116	23.178
27.085	79.129	22.502
27.479	79.126	21.840
27.879	79.134	21.195
28.284	79.132	20.563
28.696	79.134	19.937
29.113	79.146	19.311
29.537	79.144	18.688
29.966	79.138	18.076
30.402	79.128	17.470
30.844	79.125	16.857
31.293	79.136	16.219
31.748	79.138	15.561
32.210	79.133	14.898
32.678	79.106	14.239
33.154	79.097	13.573
33.636	79.100	12.896
34.125	79.093	12.222
34.621	79.087	11.573
35.125	79.084	10.945
35.636	79.084	10.321
36.154	79.090	9.698
36.680	79.099	9.096
37.214	79.103	8.516
37.755	79.091	7.937
38.304	79.065	7.363
38.861	79.041	6.818
39.427	78.998	6.285
40.000	78.955	5.731
40.582	78.940	5.184
41.172	78.928	4.688
41.771	78.923	4.163
42.379	78.923	3.502
42.995	78.916	2.798
43.620	78.903	2.215
44.255	78.897	1.696
44.898	78.886	1.077
45.552	78.854	0.460
46.214	78.828	-0.020
46.886	78.820	-0.507
47.568	78.799	-1.148
48.260	78.752	-1.771
48.962	78.690	-2.233
49.674	78.644	-2.694
50.397	78.624	-3.320
51.130	78.590	-3.975
51.874	78.551	-4.418
52.628	78.540	-4.767
53.394	78.524	-5.342
54.170	78.478	-5.977
54.958	78.442	-6.349
55.758	78.440	-6.678
56.569	78.443	-7.242
57.391	78.414	-7.894
58.226	78.351	-8.404
59.073	78.306	-8.719
59.932	78.308	-9.153
60.804	78.285	-9.921
61.688	78.202	-10.616
62.586	78.132	-10.974
63.496	78.112	-11.289
64.420	78.104	-11.777
65.357	78.071	-12.382
66.307	78.010	-12.977
67.272	77.946	-13.440
68.250	77.899	-13.762
69.243	77.862	-14.150
70.250	77.819	-14.563
71.272	77.778	-15.091
72.309	77.709	-15.625
73.360	77.676	-16.099
74.427	77.625	-16.798
75.510	77.554	-16.945
76.608	77.534	-17.274
77.723	77.471	-17.629
78.853	77.453	-17.913
80.000	77.409	-18.452
81.164	77.376	-18.948
82.344	77.323	-19.650
83.542	77.253	-20.233
84.757	77.194	-20.775
85.990	77.114	-21.233
87.241	77.031	-21.597
88.510	76.941	-21.953
89.797	76.851	-22.297
91.103	76.761	-22.670
92.428	76.706	-23.084
93.773	76.610	-23.409
95.137	76.566	-23.703
96.520	76.482	-23.900
97.924	76.440	-24.272
99.349	76.370	-24.728
100.794	76.267	-25.145
102.260	76.261	-25.271
103.747	76.217	-25.601
105.256	76.178	-25.643
106.787	76.080	-25.897
108.340	75.980	-26.203
109.916	75.888	-26.568
111.515	75.847	-27.163
113.137	75.780	-27.161
114.783	75.658	-27.667
116.452	75.585	-28.147
118.146	75.486	-27.943
119.865	74.568	-32.223
121.608	75.221	-27.526
123.377	75.162	-28.754
125.171	75.175	-28.975
126.992	75.171	-29.084
128.839	75.040	-28.969
130.713	74.915	-29.541
132.615	74.827	-29.621
134.543	74.724	-30.071
136.500	74.694	-29.765
138.486	74.577	-30.290
140.500	74.495	-30.638
142.544	74.375	-30.472
144.617	74.255	-29.881
146.721	74.114	-30.784
148.855	73.756	-32.034
151.020	74.045	-29.967
153.217	74.162	-28.972
155.445	73.761	-26.950
157.706	73.510	-27.574
160.000	72.369	-33.829
162.327	73.920	-30.974
164.688	74.060	-29.362
167.084	74.021	-28.869
169.514	73.805	-29.860
171.980	73.700	-30.497
174.481	73.605	-30.862
177.019	73.470	-30.794
179.594	73.305	-31.074
182.206	73.235	-31.353
184.856	73.227	-31.215
187.545	73.131	-31.301
190.273	73.060	-31.720
193.041	73.011	-31.758
195.849	72.920	-31.785
198.697	72.816	-31.986
201.587	72.680	-32.024
204.520	72.585	-31.749
207.494	72.541	-31.797
210.512	72.444	-31.780
213.574	72.331	-31.755
216.681	72.224	-31.855
219.833	72.108	-31.647
223.030	72.043	-31.422
226.274	71.967	-31.363
229.565	71.876	-31.177
232.905	71.774	-31.201
236.292	71.724	-31.151
239.729	71.637	-30.968
243.216	71.534	-30.980
246.754	71.443	-30.855
250.343	71.335	-30.746
253.984	71.221	-30.610
257.678	71.149	-30.155
261.426	71.105	-29.916
265.229	71.035	-29.945
269.087	70.921	-29.836
273.001	70.822	-29.571
276.972	70.732	-29.283
281.000	70.643	-29.046
285.088	70.549	-28.728
289.234	70.527	-28.245
293.441	70.481	-28.461
297.710	70.377	-28.275
302.040	70.271	-28.081
306.433	70.205	-27.815
310.890	70.143	-27.430
315.412	70.065	-27.216
320.000	69.955	-27.120
324.655	69.877	-26.708
329.377	69.806	-26.339
334.168	69.732	-26.006
339.028	69.660	-25.673
343.959	69.568	-25.492
348.962	69.482	-25.118
354.038	69.420	-24.832
359.188	69.355	-24.510
364.412	69.271	-24.159
369.713	69.178	-23.823
375.090	69.097	-23.437
380.546	69.020	-23.019
386.081	68.945	-22.633
391.697	68.875	-22.197
397.395	68.797	-21.766
403.175	68.714	-21.284
409.039	68.661	-20.790
414.989	68.570	-20.436
421.025	68.485	-20.009
427.149	68.407	-19.467
433.362	68.359	-18.753
439.665	68.305	-18.332
446.060	68.231	-17.753
452.548	68.184	-17.082
459.131	68.186	-16.905
465.809	68.074	-16.638
472.584	68.000	-16.126
479.458	67.919	-15.508
486.432	67.894	-14.881
493.507	67.776	-14.719
500.686	67.698	-13.846
507.968	67.658	-13.108
515.357	67.605	-12.573
522.853	67.549	-12.006
530.458	67.437	-11.450
538.174	67.414	-10.536
546.002	67.351	-10.052
553.943	67.300	-9.175
562.001	67.263	-8.427
570.175	67.215	-7.860
578.469	67.146	-7.153
586.883	67.136	-6.376
595.419	67.027	-5.719
604.080	66.996	-4.797
612.866	66.971	-3.941
621.780	66.957	-3.321
630.824	66.843	-2.539
640.000	66.884	-1.400
649.309	66.824	-0.597
658.753	66.783	0.442
668.335	66.872	1.475
678.056	66.863	1.963
687.919	66.860	2.782
697.925	66.839	3.344
708.076	66.835	4.228
718.376	66.874	4.890
728.825	66.914	5.179
739.426	66.899	4.232
750.181	66.337	5.192
761.093	66.358	8.461
772.163	66.448	9.959
783.394	66.513	11.248
794.789	66.552	12.109
806.349	66.560	13.334
818.078	66.618	14.329
829.977	66.664	15.766
842.050	66.745	16.091
854.297	66.737	17.008
866.724	66.787	17.613
879.330	66.720	18.957
892.120	66.747	20.131
905.097	66.727	21.187
918.262	66.782	22.904
931.618	66.831	24.619
945.169	66.981	26.065
958.917	67.095	27.396
972.864	67.209	28.296
987.015	67.356	29.434
1001.371	67.513	29.992
1015.937	67.616	31.250
1030.714	67.698	32.045
1045.706	67.898	33.303
1060.916	68.029	33.886
1076.347	68.158	34.321
1092.003	68.291	35.128
1107.887	68.411	35.696
1124.001	68.562	36.312
1140.350	68.691	36.977
1156.937	68.794	37.713
1173.765	68.931	38.157
1190.838	69.036	39.009
1208.159	69.230	40.209
1225.732	69.381	40.151
1243.561	69.553	40.472
1261.649	69.653	41.288
1280.000	69.775	41.474
1298.618	69.892	42.251
1317.507	70.031	43.099
1336.670	70.169	43.814
1356.113	70.296	44.380
1375.838	70.496	45.045
1395.850	70.615	45.989
1416.153	70.785	47.528
1436.751	71.084	47.993
1457.649	71.335	48.209
1478.851	71.588	48.624
1500.362	71.836	48.963
1522.185	72.096	49.337
1544.326	72.393	49.782
1566.789	72.667	50.243
1589.578	73.053	51.101
1612.699	73.362	51.659
1636.156	73.518	51.505
1659.955	73.563	51.517
1684.099	73.582	51.707
1708.595	73.666	51.913
1733.447	73.825	51.757
1758.661	74.032	51.469
1784.241	74.313	51.234
1810.193	74.689	51.810
1836.523	75.054	51.444
1863.236	75.434	51.043
1890.338	75.806	50.388
1917.833	76.179	49.690
1945.729	76.499	48.628
1974.030	76.908	48.146
2002.743	77.273	46.773
2031.873	77.642	45.239
2061.428	77.944	43.747
2091.412	78.305	42.145
2121.832	78.578	40.368
2152.695	78.845	37.923
2184.007	79.053	36.118
2215.774	79.337	33.769
2248.003	79.574	30.976
2280.701	79.721	27.900
2313.874	79.811	24.777
2347.530	79.817	22.393
2381.676	79.807	19.496
2416.318	79.764	16.999
2451.464	79.658	14.370
2487.122	79.466	12.336
2523.298	79.313	10.746
2560.000	79.066	9.925
2597.236	79.016	9.784
2635.014	79.063	9.207
2673.341	79.151	8.068
2712.226	79.110	6.301
2751.676	79.121	4.768
2791.700	79.041	3.390
2832.306	78.935	1.800
2873.503	78.841	1.109
2915.299	78.755	-0.645
2957.703	78.678	-0.990
3000.724	78.610	-1.562
3044.370	78.574	-2.255
3088.652	78.518	-3.320
3133.577	78.526	-3.772
3179.156	78.600	-4.307
3225.398	78.663	-5.142
3272.312	78.783	-6.018
3319.909	78.833	-7.530
3368.198	78.943	-8.715
3417.190	79.070	-10.119
3466.894	79.186	-12.279
3517.321	79.257	-14.200
3568.482	79.337	-16.330
3620.387	79.391	-18.934
3673.046	79.535	-22.207
3726.472	79.506	-25.868
3780.675	79.456	-29.844
3835.666	79.361	-34.524
3891.457	79.087	-39.150
3948.060	78.702	-43.271
4005.486	78.249	-47.081
4063.747	77.757	-51.430
4122.855	77.044	-54.693
4182.824	76.280	-57.260
4243.664	75.429	-60.058
4305.390	74.461	-61.528
4368.013	73.455	-62.874
4431.547	72.450	-62.644
4496.005	71.339	-62.656
4561.401	70.152	-61.069
4627.749	69.005	-58.493
4695.061	67.799	-53.559
4763.352	66.923	-45.706
4832.637	66.728	-37.103
4902.929	66.916	-31.462
4974.244	67.169	-28.215
5046.596	67.266	-27.029
5120.000	67.227	-25.870
5194.472	67.001	-23.881
5270.027	66.772	-22.220
5346.682	66.512	-19.790
5424.451	66.276	-17.718
5503.352	65.959	-15.291
5583.399	65.604	-11.870
5664.612	65.334	-8.706
5747.006	65.053	-5.070
5830.598	64.852	-1.479
5915.406	64.640	2.001
6001.447	64.548	6.256
6088.740	64.427	10.350
6177.303	64.458	14.603
6267.154	64.537	18.890
6358.312	64.551	23.146
6450.796	64.687	27.382
6544.625	64.901	32.283
6639.818	65.193	36.720
6736.397	65.467	41.093
6834.380	65.864	45.293
6933.789	66.342	50.024
7034.643	66.965	54.261
7136.964	67.600	58.531
7240.773	68.347	62.343
7346.093	69.250	66.120
7452.944	70.381	68.908
7561.350	71.674	71.200
7671.332	73.072	71.688
7782.915	74.847	70.180
7896.120	76.659	64.324
8010.971	78.387	52.091
8127.493	79.054	34.691
8245.711	78.395	16.871
8365.647	76.799	5.433
8487.328	75.026	-0.122
8610.779	73.530	-0.692
8736.026	72.384	0.860
8863.095	71.530	2.723
8992.011	70.832	5.810
9122.803	70.297	9.375
9255.497	69.912	12.670
9390.121	69.625	17.144
9526.704	69.567	21.825
9665.273	69.593	25.591
9805.857	69.816	29.692
9948.487	70.154	34.218
10093.191	70.678	37.490
10240.000	71.351	40.605
10388.944	72.333	43.294
10540.055	73.356	44.117
10693.363	74.627	43.364
10848.902	76.032	39.543
11006.703	77.413	31.785
11166.799	78.634	20.390
11329.224	78.983	4.998
11494.012	78.283	-8.809
11661.195	77.202	-19.506
11830.812	75.979	-27.000
12002.895	74.829	-31.729
12177.480	73.819	-35.764
12354.606	72.970	-39.087
12534.309	72.200	-43.227
12716.624	71.306	-47.137
12901.592	70.396	-52.036
13089.250	69.092	-56.593
13279.637	67.718	-60.174
13472.794	66.300	-61.485
13668.760	64.720	-63.294
13867.577	62.888	-63.775
14069.285	61.046	-62.521
14273.928	59.408	-60.569
14481.547	57.801	-56.699
14692.186	56.434	-52.444
14905.889	55.230	-45.971
15122.700	54.111	-40.585
15342.664	52.951	-33.944
15565.829	51.652	-27.168
15792.239	49.960	-19.103
16021.942	47.955	-9.001
16254.986	45.681	7.142
16491.422	44.376	39.893
16731.295	49.490	76.186
16974.656	55.941	64.321
17221.559	56.961	43.882
17472.053	57.278	36.399
17726.189	58.408	31.109
17984.021	60.733	18.974
18245.605	62.031	-18.186
18510.994	57.635	-53.131
18780.242	52.547	-60.955
19053.408	48.363	-58.867
19330.547	44.781	-53.781
19611.715	41.203	-43.576
19896.975	38.816	-26.346
