* Measurement data measured by REW V5.19
* Source: Mic in at front panel (Pink) (Realtek(R) Audio), no input selected, L, volume: no control
* Format: 256k Log Swept Sine, 1 sweep at -12.0 dBFS  With no timing reference
* Dated: Jul 3, 2021 7:25:29 PM
* REW Settings:
*  C-weighting compensation: Off
*  Target level: 75.0 dB
* Note: KZ S1
* Measurement: Jul 3 19:25:29
* Smoothing: 1/24 octave
* Frequency Step: 1/48 octave
* Start Frequency: 20.3 Hz
*
* Freq(Hz)	SPL(dB)	Phase(degrees)
20.291	75.432	-167.442
20.586	75.442	-167.658
20.885	75.455	-168.068
21.189	75.449	-168.490
21.497	75.426	-168.874
21.810	75.397	-169.203
22.127	75.371	-169.479
22.449	75.355	-169.729
22.776	75.351	-170.003
23.107	75.357	-170.359
23.443	75.365	-170.827
23.784	75.364	-171.383
24.130	75.347	-171.942
24.481	75.316	-172.391
24.837	75.284	-172.649
25.198	75.273	-172.731
25.565	75.304	-172.767
25.937	75.378	-172.947
26.314	75.468	-173.414
26.697	75.536	-174.162
27.085	75.556	-175.026
27.479	75.528	-175.779
27.879	75.477	-176.270
28.284	75.438	-176.521
28.696	75.429	-176.701
29.113	75.440	-176.983
29.537	75.445	-177.409
29.966	75.427	-177.876
30.402	75.395	-178.261
30.844	75.375	-178.561
31.293	75.375	-178.893
31.748	75.377	-179.373
32.210	75.354	-179.963
32.678	75.301	179.516
33.154	75.246	179.205
33.636	75.225	179.046
34.125	75.242	178.818
34.621	75.271	178.377
35.125	75.279	177.805
35.636	75.268	177.312
36.154	75.263	176.973
36.680	75.279	176.656
37.214	75.298	176.224
37.755	75.293	175.710
38.304	75.260	175.254
38.861	75.221	174.898
39.427	75.186	174.556
40.000	75.156	174.168
40.582	75.133	173.763
41.172	75.118	173.357
41.771	75.108	172.909
42.379	75.093	172.418
42.995	75.076	171.961
43.620	75.063	171.574
44.255	75.055	171.198
44.898	75.042	170.794
45.552	75.021	170.401
46.214	74.999	170.048
46.886	74.979	169.705
47.568	74.955	169.344
48.260	74.922	168.975
48.962	74.881	168.600
49.674	74.840	168.211
50.397	74.804	167.817
51.130	74.777	167.439
51.874	74.756	167.068
52.628	74.733	166.687
53.394	74.704	166.294
54.170	74.675	165.905
54.958	74.651	165.525
55.758	74.631	165.153
56.569	74.610	164.784
57.391	74.585	164.408
58.226	74.550	164.030
59.073	74.511	163.677
59.932	74.470	163.334
60.804	74.424	162.977
61.688	74.373	162.628
62.586	74.328	162.282
63.496	74.291	161.919
64.420	74.258	161.543
65.357	74.227	161.141
66.307	74.197	160.716
67.272	74.167	160.290
68.250	74.129	159.914
69.243	74.084	159.661
70.250	74.048	159.489
71.272	74.018	159.176
72.309	73.955	158.727
73.360	73.875	158.449
74.427	73.827	158.257
75.510	73.788	157.937
76.608	73.739	157.594
77.723	73.695	157.235
78.853	73.648	156.846
80.000	73.594	156.492
81.164	73.541	156.188
82.344	73.490	155.896
83.542	73.441	155.595
84.757	73.395	155.275
85.990	73.338	154.911
87.241	73.266	154.621
88.510	73.201	154.402
89.797	73.139	154.092
91.103	73.063	153.777
92.428	72.998	153.531
93.773	72.945	153.241
95.137	72.900	152.964
96.520	72.864	152.693
97.924	72.818	152.446
99.349	72.756	152.290
100.794	72.688	152.161
102.260	72.623	151.940
103.747	72.561	151.583
105.256	72.498	151.202
106.787	72.442	150.914
108.340	72.388	150.706
109.916	72.306	150.503
111.515	72.199	150.372
113.137	72.113	150.147
114.783	72.062	149.775
116.452	72.069	149.527
118.146	72.151	149.371
119.865	72.188	148.828
121.608	72.030	148.606
123.377	71.827	149.054
125.171	71.668	149.319
126.992	71.555	149.282
128.839	71.497	149.071
130.713	71.448	148.715
132.615	71.376	148.505
134.543	71.309	148.526
136.500	71.275	148.567
138.486	71.243	148.281
140.500	71.179	147.931
142.544	71.130	147.608
144.617	71.078	147.262
146.721	71.016	147.060
148.855	70.902	146.896
151.020	70.745	147.060
153.217	70.632	147.325
155.445	70.558	147.339
157.706	70.490	147.216
160.000	70.428	147.049
162.327	70.370	146.837
164.688	70.288	146.693
167.084	70.167	146.755
169.514	70.045	146.879
171.980	69.928	146.959
174.481	69.796	147.239
177.019	69.661	147.555
179.594	69.549	147.525
182.206	69.429	147.262
184.856	69.267	147.040
187.545	69.111	146.760
190.273	69.068	146.892
193.041	69.123	147.301
195.849	69.134	147.673
198.697	69.112	149.019
201.587	68.986	152.911
204.520	68.819	157.551
207.494	68.749	156.936
210.512	68.759	153.132
213.574	68.897	151.537
216.681	68.932	151.244
219.833	68.889	150.694
223.030	68.853	150.280
226.274	68.753	149.820
229.565	68.633	149.327
232.905	68.552	149.190
236.292	68.463	149.174
239.729	68.356	149.182
243.216	68.251	149.345
246.754	68.153	149.549
250.343	68.064	149.734
253.984	67.976	149.908
257.678	67.888	150.096
261.426	67.804	150.330
265.229	67.723	150.585
269.087	67.647	150.766
273.001	67.585	150.862
276.972	67.504	151.035
281.000	67.399	151.370
285.088	67.310	151.701
289.234	67.226	152.012
293.441	67.136	152.312
297.710	67.052	152.632
302.040	66.975	153.008
306.433	66.908	153.362
310.890	66.840	153.671
315.412	66.762	154.000
320.000	66.684	154.349
324.655	66.612	154.723
329.377	66.541	155.110
334.168	66.466	155.496
339.028	66.389	155.895
343.959	66.312	156.289
348.962	66.238	156.692
354.038	66.172	157.137
359.188	66.106	157.597
364.412	66.028	158.040
369.713	65.945	158.515
375.090	65.869	159.037
380.546	65.808	159.546
386.081	65.750	160.061
391.697	65.691	160.551
397.395	65.633	161.047
403.175	65.571	161.566
409.039	65.501	162.083
414.989	65.429	162.603
421.025	65.365	163.136
427.149	65.306	163.691
433.362	65.244	164.266
439.665	65.180	164.848
446.060	65.114	165.452
452.548	65.050	166.068
459.131	64.991	166.676
465.809	64.936	167.307
472.584	64.884	167.951
479.458	64.833	168.594
486.432	64.778	169.240
493.507	64.724	169.915
500.686	64.672	170.611
507.968	64.623	171.305
515.357	64.576	172.015
522.853	64.528	172.741
530.458	64.477	173.491
538.174	64.426	174.260
546.002	64.379	175.016
553.943	64.336	175.789
562.001	64.295	176.584
570.175	64.258	177.397
578.469	64.222	178.248
586.883	64.181	179.117
595.419	64.136	179.973
604.080	64.100	-179.152
612.866	64.074	-178.249
621.780	64.051	-177.351
630.824	64.025	-176.441
640.000	63.997	-175.495
649.309	63.966	-174.532
658.753	63.940	-173.556
668.335	63.924	-172.561
678.056	63.914	-171.537
687.919	63.906	-170.503
697.925	63.894	-169.467
708.076	63.883	-168.401
718.376	63.880	-167.303
728.825	63.881	-166.180
739.426	63.888	-165.042
750.181	63.898	-163.897
761.093	63.909	-162.757
772.163	63.923	-161.608
783.394	63.943	-160.428
794.789	63.970	-159.225
806.349	64.004	-158.009
818.078	64.043	-156.777
829.977	64.087	-155.529
842.050	64.137	-154.290
854.297	64.191	-153.056
866.724	64.245	-151.798
879.330	64.306	-150.533
892.120	64.381	-149.273
905.097	64.463	-148.023
918.262	64.546	-146.799
931.618	64.634	-145.593
945.169	64.729	-144.392
958.917	64.833	-143.195
972.864	64.944	-142.022
987.015	65.063	-140.894
1001.371	65.187	-139.799
1015.937	65.312	-138.736
1030.714	65.438	-137.700
1045.706	65.567	-136.701
1060.916	65.702	-135.725
1076.347	65.838	-134.783
1092.003	65.975	-133.881
1107.887	66.119	-133.012
1124.001	66.267	-132.172
1140.350	66.409	-131.362
1156.937	66.536	-130.557
1173.765	66.654	-129.680
1190.838	66.782	-128.619
1208.159	66.968	-127.426
1225.732	67.219	-126.570
1243.561	67.452	-126.309
1261.649	67.613	-126.305
1280.000	67.707	-126.221
1298.618	67.761	-125.852
1317.507	67.815	-125.129
1336.670	67.900	-124.177
1356.113	68.018	-123.174
1375.838	68.154	-122.214
1395.850	68.299	-121.308
1416.153	68.455	-120.430
1436.751	68.619	-119.554
1457.649	68.785	-118.678
1478.851	68.964	-117.822
1500.362	69.161	-116.969
1522.185	69.379	-116.092
1544.326	69.615	-115.204
1566.789	69.862	-114.314
1589.578	70.096	-113.415
1612.699	70.277	-112.504
1636.156	70.372	-111.583
1659.955	70.388	-110.653
1684.099	70.377	-109.720
1708.595	70.395	-108.783
1733.447	70.481	-107.835
1758.661	70.643	-106.889
1784.241	70.867	-105.947
1810.193	71.123	-105.014
1836.523	71.393	-104.097
1863.236	71.675	-103.198
1890.338	71.972	-102.318
1917.833	72.280	-101.465
1945.729	72.595	-100.650
1974.030	72.917	-99.865
2002.743	73.246	-99.117
2031.873	73.584	-98.429
2061.428	73.932	-97.808
2091.412	74.287	-97.253
2121.832	74.648	-96.785
2152.695	75.021	-96.418
2184.007	75.407	-96.159
2215.774	75.809	-96.030
2248.003	76.224	-96.055
2280.701	76.650	-96.257
2313.874	77.083	-96.655
2347.530	77.519	-97.275
2381.676	77.956	-98.145
2416.318	78.392	-99.283
2451.464	78.820	-100.708
2487.122	79.232	-102.446
2523.298	79.618	-104.505
2560.000	79.967	-106.866
2597.236	80.269	-109.500
2635.014	80.514	-112.377
2673.341	80.698	-115.428
2712.226	80.813	-118.557
2751.676	80.853	-121.662
2791.700	80.819	-124.652
2832.306	80.722	-127.440
2873.503	80.571	-129.950
2915.299	80.375	-132.127
2957.703	80.139	-133.942
3000.724	79.872	-135.382
3044.370	79.592	-136.452
3088.652	79.314	-137.169
3133.577	79.048	-137.544
3179.156	78.799	-137.606
3225.398	78.573	-137.389
3272.312	78.371	-136.920
3319.909	78.193	-136.226
3368.198	78.042	-135.333
3417.190	77.915	-134.266
3466.894	77.812	-133.053
3517.321	77.733	-131.722
3568.482	77.684	-130.303
3620.387	77.678	-128.824
3673.046	77.721	-127.326
3726.472	77.824	-125.864
3780.675	77.994	-124.491
3835.666	78.241	-123.295
3891.457	78.567	-122.396
3948.060	78.963	-121.935
4005.486	79.410	-122.116
4063.747	79.871	-123.191
4122.855	80.291	-125.402
4182.824	80.588	-128.868
4243.664	80.667	-133.395
4305.390	80.450	-138.350
4368.013	79.920	-142.730
4431.547	79.133	-145.524
4496.005	78.211	-146.132
4561.401	77.317	-144.539
4627.749	76.595	-141.197
4695.061	76.147	-136.791
4763.352	76.016	-132.050
4832.637	76.202	-127.650
4902.929	76.674	-124.210
4974.244	77.374	-122.307
5046.596	78.205	-122.514
5120.000	79.031	-125.356
5194.472	79.671	-131.059
5270.027	79.941	-139.131
5346.682	79.718	-148.178
5424.451	78.995	-156.425
5503.352	77.875	-162.589
5583.399	76.513	-166.290
5664.612	75.063	-167.808
5747.006	73.636	-167.636
5830.598	72.286	-166.218
5915.406	71.033	-163.905
6001.447	69.877	-160.940
6088.740	68.806	-157.477
6177.303	67.815	-153.642
6267.154	66.895	-149.534
6358.312	66.037	-145.209
6450.796	65.233	-140.720
6544.625	64.474	-136.118
6639.818	63.759	-131.423
6736.397	63.082	-126.662
6834.380	62.438	-121.880
6933.789	61.825	-117.110
7034.643	61.238	-112.392
7136.964	60.669	-107.791
7240.773	60.113	-103.392
7346.093	59.576	-99.250
7452.944	59.066	-95.404
7561.350	58.582	-91.943
7671.332	58.122	-89.005
7782.915	57.687	-86.756
7896.120	57.291	-85.360
8010.971	56.968	-85.011
8127.493	56.786	-85.895
8245.711	56.826	-88.083
8365.647	57.178	-91.511
8487.328	57.928	-95.920
8610.779	59.131	-100.901
8736.026	60.771	-106.049
8863.095	62.791	-111.130
8992.011	65.098	-116.249
9122.803	67.573	-121.882
9255.497	70.066	-128.796
9390.121	72.391	-137.760
9526.704	74.352	-148.987
9665.273	75.813	-161.655
9805.857	76.770	-174.107
9948.487	77.359	175.102
10093.191	77.768	166.327
10240.000	78.123	158.898
10388.944	78.444	151.774
10540.055	78.656	144.187
10693.363	78.613	136.089
10848.902	78.190	128.274
11006.703	77.393	121.971
11166.799	76.333	118.117
11329.224	75.151	116.960
11494.012	73.973	118.201
11661.195	72.892	121.351
11830.812	71.966	125.921
12002.895	71.219	131.482
12177.480	70.662	137.660
12354.606	70.310	144.115
12534.309	70.162	150.500
12716.624	70.201	156.407
12901.592	70.399	161.318
13089.250	70.690	164.592
13279.637	70.940	165.651
13472.794	70.937	164.407
13668.760	70.451	161.858
13867.577	69.369	160.242
14069.285	67.842	162.165
14273.928	66.436	167.358
14481.547	65.463	171.528
14692.186	64.310	175.028
14905.889	62.832	-178.617
15122.700	61.350	-169.378
15342.664	60.004	-158.556
15565.829	58.746	-147.026
15792.239	57.473	-135.310
16021.942	56.129	-123.666
16254.986	54.774	-111.897
16491.422	53.528	-99.351
16731.295	52.458	-85.197
16974.656	51.573	-69.034
17221.559	50.946	-51.333
17472.053	50.703	-33.105
17726.189	50.834	-15.270
17984.021	51.257	1.515
18245.605	51.907	16.230
18510.994	52.656	27.625
18780.242	53.255	34.296
19053.408	53.266	34.976
19330.547	52.127	32.215
19611.715	49.373	36.002
19896.975	45.233	51.293
