* Measurement data measured by REW V5.19
* Source: Mic in at front panel (Pink) (Realtek(R) Audio), no input selected, L, volume: no control
* Format: 256k Log Swept Sine, 1 sweep at -12.0 dBFS  With no timing reference
* Dated: Aug 26, 2021 2:37:35 PM
* REW Settings:
*  C-weighting compensation: Off
*  Target level: 75.0 dB
* Note: KZ ZSX
* Measurement: zsx
* Smoothing: 1/12 octave
* Frequency Step: 1/48 octave
* Start Frequency: 20.0 Hz
*
* Freq(Hz)	SPL(dB)	Phase(degrees)
20.000	76.682	42.206
20.291	76.747	41.529
20.586	76.795	40.757
20.885	76.821	39.963
21.189	76.829	39.232
21.497	76.829	38.607
21.810	76.834	38.072
22.127	76.850	37.576
22.449	76.877	37.051
22.776	76.911	36.446
23.107	76.942	35.745
23.443	76.964	34.973
23.784	76.973	34.181
24.130	76.973	33.410
24.481	76.969	32.681
24.837	76.966	31.992
25.198	76.967	31.328
25.565	76.972	30.676
25.937	76.983	30.032
26.314	76.998	29.391
26.697	77.019	28.751
27.085	77.044	28.103
27.479	77.073	27.440
27.879	77.102	26.760
28.284	77.129	26.071
28.696	77.154	25.383
29.113	77.174	24.704
29.537	77.191	24.042
29.966	77.203	23.405
30.402	77.211	22.805
30.844	77.217	22.247
31.293	77.224	21.728
31.748	77.233	21.229
32.210	77.246	20.733
32.678	77.261	20.220
33.154	77.280	19.674
33.636	77.299	19.076
34.125	77.317	18.411
34.621	77.328	17.682
35.125	77.329	16.911
35.636	77.319	16.136
36.154	77.298	15.393
36.680	77.271	14.710
37.214	77.242	14.107
37.755	77.218	13.583
38.304	77.204	13.116
38.861	77.201	12.663
39.427	77.207	12.184
40.000	77.215	11.663
40.582	77.221	11.104
41.172	77.222	10.521
41.771	77.215	9.937
42.379	77.201	9.377
42.995	77.184	8.857
43.620	77.168	8.369
44.255	77.156	7.891
44.898	77.145	7.407
45.552	77.134	6.924
46.214	77.124	6.450
46.886	77.116	5.982
47.568	77.111	5.505
48.260	77.104	5.008
48.962	77.092	4.503
49.674	77.075	4.009
50.397	77.056	3.528
51.130	77.037	3.044
51.874	77.018	2.542
52.628	76.998	2.026
53.394	76.978	1.519
54.170	76.961	1.038
54.958	76.950	0.576
55.758	76.943	0.113
56.569	76.934	-0.356
57.391	76.920	-0.822
58.226	76.896	-1.278
59.073	76.864	-1.729
59.932	76.826	-2.187
60.804	76.786	-2.671
61.688	76.748	-3.180
62.586	76.718	-3.701
63.496	76.700	-4.222
64.420	76.691	-4.735
65.357	76.684	-5.219
66.307	76.667	-5.653
67.272	76.635	-6.041
68.250	76.581	-6.426
69.243	76.508	-6.890
70.250	76.422	-7.526
71.272	76.329	-8.406
72.309	76.231	-9.506
73.360	76.128	-10.619
74.427	76.037	-11.421
75.510	75.995	-11.752
76.608	76.022	-11.770
77.723	76.088	-11.729
78.853	76.148	-11.749
80.000	76.174	-11.848
81.164	76.164	-12.034
82.344	76.127	-12.328
83.542	76.074	-12.736
84.757	76.017	-13.216
85.990	75.961	-13.703
87.241	75.909	-14.151
88.510	75.858	-14.552
89.797	75.806	-14.923
91.103	75.754	-15.295
92.428	75.704	-15.696
93.773	75.655	-16.128
95.137	75.607	-16.549
96.520	75.558	-16.912
97.924	75.506	-17.205
99.349	75.451	-17.459
100.794	75.390	-17.712
102.260	75.327	-17.991
103.747	75.267	-18.301
105.256	75.213	-18.636
106.787	75.159	-18.991
108.340	75.101	-19.363
109.916	75.037	-19.761
111.515	74.978	-20.188
113.137	74.943	-20.619
114.783	74.947	-21.010
116.452	74.984	-21.343
118.146	75.020	-21.647
119.865	75.005	-21.928
121.608	74.910	-22.103
123.377	74.755	-22.132
125.171	74.585	-22.129
126.992	74.437	-22.243
128.839	74.326	-22.502
130.713	74.241	-22.808
132.615	74.142	-23.035
134.543	73.992	-23.145
136.500	73.782	-23.238
138.486	73.545	-23.383
140.500	73.337	-23.398
142.544	73.214	-23.012
144.617	73.188	-22.289
146.721	73.243	-21.642
148.855	73.369	-21.472
151.020	73.542	-21.897
153.217	73.685	-22.603
155.445	73.731	-23.101
157.706	73.685	-23.287
160.000	73.595	-23.437
162.327	73.504	-23.703
164.688	73.417	-23.999
167.084	73.323	-24.248
169.514	73.214	-24.461
171.980	73.104	-24.643
174.481	73.011	-24.783
177.019	72.934	-24.902
179.594	72.864	-25.039
182.206	72.793	-25.203
184.856	72.720	-25.383
187.545	72.645	-25.569
190.273	72.569	-25.741
193.041	72.487	-25.849
195.849	72.403	-25.859
198.697	72.319	-25.788
201.587	72.238	-25.688
204.520	72.159	-25.606
207.494	72.081	-25.568
210.512	71.999	-25.575
213.574	71.909	-25.609
216.681	71.812	-25.650
219.833	71.712	-25.677
223.030	71.614	-25.674
226.274	71.529	-25.634
229.565	71.458	-25.561
232.905	71.396	-25.467
236.292	71.336	-25.365
239.729	71.273	-25.258
243.216	71.202	-25.133
246.754	71.124	-24.978
250.343	71.042	-24.789
253.984	70.961	-24.580
257.678	70.883	-24.368
261.426	70.808	-24.172
265.229	70.734	-23.992
269.087	70.659	-23.811
273.001	70.583	-23.612
276.972	70.509	-23.388
281.000	70.440	-23.153
285.088	70.376	-22.928
289.234	70.316	-22.734
293.441	70.255	-22.574
297.710	70.190	-22.423
302.040	70.120	-22.255
306.433	70.048	-22.061
310.890	69.973	-21.845
315.412	69.897	-21.612
320.000	69.819	-21.355
324.655	69.741	-21.072
329.377	69.665	-20.768
334.168	69.592	-20.456
339.028	69.520	-20.145
343.959	69.448	-19.832
348.962	69.376	-19.509
354.038	69.303	-19.170
359.188	69.230	-18.814
364.412	69.156	-18.441
369.713	69.082	-18.051
375.090	69.008	-17.648
380.546	68.936	-17.233
386.081	68.866	-16.810
391.697	68.799	-16.378
397.395	68.735	-15.935
403.175	68.672	-15.480
409.039	68.609	-15.014
414.989	68.545	-14.534
421.025	68.482	-14.037
427.149	68.422	-13.521
433.362	68.367	-12.994
439.665	68.317	-12.468
446.060	68.272	-11.956
452.548	68.227	-11.471
459.131	68.180	-11.012
465.809	68.127	-10.558
472.584	68.069	-10.084
479.458	68.009	-9.580
486.432	67.949	-9.044
493.507	67.890	-8.478
500.686	67.833	-7.881
507.968	67.780	-7.264
515.357	67.730	-6.638
522.853	67.680	-6.001
530.458	67.631	-5.342
538.174	67.584	-4.656
546.002	67.540	-3.951
553.943	67.500	-3.237
562.001	67.462	-2.521
570.175	67.427	-1.803
578.469	67.392	-1.074
586.883	67.358	-0.325
595.419	67.326	0.446
604.080	67.296	1.237
612.866	67.268	2.045
621.780	67.243	2.875
630.824	67.222	3.735
640.000	67.208	4.625
649.309	67.203	5.531
658.753	67.208	6.431
668.335	67.218	7.301
678.056	67.230	8.136
687.919	67.240	8.950
697.925	67.247	9.767
708.076	67.256	10.601
718.376	67.268	11.453
728.825	67.285	12.317
739.426	67.308	13.186
750.181	67.336	14.052
761.093	67.371	14.900
772.163	67.410	15.713
783.394	67.452	16.470
794.789	67.491	17.156
806.349	67.519	17.772
818.078	67.528	18.359
829.977	67.512	19.009
842.050	67.477	19.846
854.297	67.442	20.946
866.724	67.431	22.276
879.330	67.457	23.715
892.120	67.519	25.138
905.097	67.607	26.474
918.262	67.710	27.704
931.618	67.822	28.837
945.169	67.939	29.889
958.917	68.058	30.877
972.864	68.179	31.822
987.015	68.303	32.743
1001.371	68.432	33.651
1015.937	68.568	34.549
1030.714	68.715	35.419
1045.706	68.871	36.230
1060.916	69.031	36.958
1076.347	69.191	37.607
1092.003	69.348	38.197
1107.887	69.502	38.747
1124.001	69.653	39.271
1140.350	69.803	39.781
1156.937	69.952	40.283
1173.765	70.105	40.779
1190.838	70.261	41.263
1208.159	70.422	41.719
1225.732	70.583	42.145
1243.561	70.744	42.557
1261.649	70.904	42.982
1280.000	71.071	43.424
1298.618	71.247	43.859
1317.507	71.433	44.250
1336.670	71.624	44.579
1356.113	71.818	44.860
1375.838	72.013	45.133
1395.850	72.213	45.431
1416.153	72.424	45.750
1436.751	72.646	46.060
1457.649	72.875	46.333
1478.851	73.106	46.561
1500.362	73.335	46.752
1522.185	73.561	46.913
1544.326	73.785	47.047
1566.789	74.011	47.137
1589.578	74.243	47.148
1612.699	74.480	47.047
1636.156	74.718	46.820
1659.955	74.956	46.478
1684.099	75.192	46.034
1708.595	75.425	45.493
1733.447	75.654	44.860
1758.661	75.880	44.142
1784.241	76.105	43.338
1810.193	76.330	42.425
1836.523	76.555	41.375
1863.236	76.777	40.178
1890.338	76.996	38.853
1917.833	77.215	37.420
1945.729	77.440	35.875
1974.030	77.670	34.168
2002.743	77.894	32.230
2031.873	78.096	30.027
2061.428	78.256	27.583
2091.412	78.363	24.974
2121.832	78.408	22.311
2152.695	78.388	19.719
2184.007	78.309	17.319
2215.774	78.182	15.210
2248.003	78.020	13.469
2280.701	77.845	12.141
2313.874	77.684	11.195
2347.530	77.562	10.492
2381.676	77.488	9.811
2416.318	77.448	8.952
2451.464	77.412	7.823
2487.122	77.350	6.476
2523.298	77.244	5.057
2560.000	77.091	3.732
2597.236	76.900	2.622
2635.014	76.686	1.784
2673.341	76.464	1.230
2712.226	76.245	0.940
2751.676	76.041	0.866
2791.700	75.858	0.936
2832.306	75.696	1.083
2873.503	75.547	1.263
2915.299	75.406	1.473
2957.703	75.266	1.744
3000.724	75.127	2.116
3044.370	74.992	2.631
3088.652	74.868	3.316
3133.577	74.766	4.167
3179.156	74.695	5.134
3225.398	74.661	6.139
3272.312	74.662	7.116
3319.909	74.690	8.024
3368.198	74.739	8.851
3417.190	74.807	9.605
3466.894	74.889	10.313
3517.321	74.989	11.012
3568.482	75.117	11.703
3620.387	75.279	12.337
3673.046	75.477	12.833
3726.472	75.704	13.108
3780.675	75.951	13.096
3835.666	76.208	12.751
3891.457	76.465	12.041
3948.060	76.714	10.925
4005.486	76.941	9.343
4063.747	77.125	7.250
4122.855	77.237	4.675
4182.824	77.249	1.765
4243.664	77.138	-1.207
4305.390	76.896	-3.862
4368.013	76.534	-5.793
4431.547	76.094	-6.677
4496.005	75.647	-6.386
4561.401	75.288	-5.094
4627.749	75.107	-3.295
4695.061	75.135	-1.678
4763.352	75.322	-0.900
4832.637	75.570	-1.367
4902.929	75.774	-3.128
4974.244	75.857	-5.904
5046.596	75.776	-9.194
5120.000	75.521	-12.428
5194.472	75.109	-15.128
5270.027	74.574	-17.002
5346.682	73.956	-17.940
5424.451	73.292	-17.940
5503.352	72.613	-17.040
5583.399	71.947	-15.276
5664.612	71.330	-12.719
5747.006	70.802	-9.528
5830.598	70.402	-6.017
5915.406	70.129	-2.570
6001.447	69.938	0.598
6088.740	69.775	3.580
6177.303	69.620	6.622
6267.154	69.485	9.905
6358.312	69.394	13.480
6450.796	69.371	17.310
6544.625	69.434	21.314
6639.818	69.594	25.405
6736.397	69.861	29.501
6834.380	70.245	33.512
6933.789	70.755	37.318
7034.643	71.393	40.747
7136.964	72.150	43.576
7240.773	72.999	45.535
7346.093	73.889	46.337
7452.944	74.756	45.761
7561.350	75.541	43.762
7671.332	76.203	40.520
7782.915	76.728	36.357
7896.120	77.119	31.574
8010.971	77.381	26.340
8127.493	77.500	20.743
8245.711	77.445	14.989
8365.647	77.182	9.559
8487.328	76.710	5.122
8610.779	76.066	2.261
8736.026	75.331	1.237
8863.095	74.612	1.951
8992.011	74.022	4.034
9122.803	73.659	6.973
9255.497	73.579	10.216
9390.121	73.786	13.246
9526.704	74.246	15.617
9665.273	74.903	16.957
9805.857	75.694	16.933
9948.487	76.547	15.183
10093.191	77.373	11.312
10240.000	78.061	5.031
10388.944	78.502	-3.570
10540.055	78.603	-13.767
10693.363	78.316	-24.263
10848.902	77.647	-33.635
11006.703	76.652	-40.902
11166.799	75.427	-45.792
11329.224	74.085	-48.611
11494.012	72.726	-49.910
11661.195	71.418	-50.186
11830.812	70.183	-49.721
12002.895	69.007	-48.556
12177.480	67.871	-46.567
12354.606	66.777	-43.606
12534.309	65.761	-39.658
12716.624	64.899	-34.947
12901.592	64.278	-29.962
13089.250	63.948	-25.387
13279.637	63.878	-21.956
13472.794	63.954	-20.258
13668.760	64.027	-20.532
13867.577	63.961	-22.512
14069.285	63.662	-25.426
14273.928	63.085	-28.176
14481.547	62.237	-29.628
14692.186	61.174	-28.884
14905.889	60.030	-25.492
15122.700	59.050	-19.748
15342.664	58.542	-13.018
15565.829	58.625	-7.463
15792.239	59.104	-4.841
16021.942	59.738	-5.807
16254.986	60.376	-10.654
16491.422	60.847	-19.785
16731.295	60.941	-32.808
16974.656	60.482	-47.517
17221.559	59.376	-60.215
17472.053	57.616	-67.286
17726.189	55.257	-66.602
17984.021	52.389	-57.870
18245.605	49.131	-42.253
18510.994	45.673	-21.982
18780.242	42.449	0.004
19053.408	40.313	20.696
19330.547	39.837	37.790
19611.715	40.342	50.055
19896.975	40.906	57.143
