* Measurement data measured by REW V5.19
* Source: Mic in at front panel (Pink) (Realtek(R) Audio), no input selected, L, volume: no control
* Format: 256k Log Swept Sine, 1 sweep at -12.0 dBFS  With no timing reference
* Dated: Jun 24, 2021 8:00:28 PM
* REW Settings:
*  C-weighting compensation: Off
*  Target level: 75.0 dB
* Note: KZ ZSN
* Measurement: Jun 24 20:00:28
* Smoothing: None
* Frequency Step: 1/48 octave
* Start Frequency: 20.3 Hz
*
* Freq(Hz)	SPL(dB)	Phase(degrees)
20.291	70.450	44.962
20.586	70.481	44.339
20.885	70.520	43.844
21.189	70.544	43.348
21.497	70.576	42.792
21.810	70.622	42.156
22.127	70.661	41.455
22.449	70.681	40.726
22.776	70.697	40.010
23.107	70.717	39.335
23.443	70.734	38.694
23.784	70.761	38.058
24.130	70.800	37.392
24.481	70.846	36.679
24.837	70.885	35.922
25.198	70.904	35.144
25.565	70.925	34.376
25.937	70.949	33.649
26.314	70.967	32.978
26.697	70.996	32.359
27.085	71.021	31.765
27.479	71.035	31.163
27.879	71.061	30.534
28.284	71.071	29.894
28.696	71.079	29.278
29.113	71.097	28.712
29.537	71.108	28.179
29.966	71.123	27.627
30.402	71.135	27.021
30.844	71.145	26.374
31.293	71.159	25.742
31.748	71.165	25.162
32.210	71.173	24.608
32.678	71.168	24.017
33.154	71.179	23.355
33.636	71.194	22.657
34.125	71.190	21.992
34.621	71.188	21.396
35.125	71.191	20.844
35.636	71.201	20.298
36.154	71.219	19.748
36.680	71.241	19.211
37.214	71.259	18.690
37.755	71.264	18.168
38.304	71.258	17.638
38.861	71.253	17.116
39.427	71.228	16.612
40.000	71.207	16.102
40.582	71.223	15.559
41.172	71.237	14.973
41.771	71.240	14.351
42.379	71.239	13.709
42.995	71.243	13.093
43.620	71.249	12.547
44.255	71.250	12.051
44.898	71.248	11.552
45.552	71.241	11.053
46.214	71.241	10.575
46.886	71.242	10.075
47.568	71.226	9.543
48.260	71.202	9.070
48.962	71.173	8.660
49.674	71.148	8.179
50.397	71.137	7.622
51.130	71.131	7.113
51.874	71.131	6.650
52.628	71.124	6.186
53.394	71.097	5.778
54.170	71.088	5.391
54.958	71.096	4.929
55.758	71.087	4.475
56.569	71.080	4.099
57.391	71.087	3.651
58.226	71.072	3.046
59.073	71.031	2.496
59.932	71.009	2.094
60.804	70.998	1.608
61.688	70.969	1.041
62.586	70.945	0.548
63.496	70.938	0.089
64.420	70.933	-0.372
65.357	70.912	-0.874
66.307	70.875	-1.299
67.272	70.858	-1.673
68.250	70.844	-2.083
69.243	70.829	-2.542
70.250	70.786	-3.075
71.272	70.745	-3.379
72.309	70.739	-3.895
73.360	70.699	-4.549
74.427	70.663	-4.896
75.510	70.659	-5.043
76.608	70.659	-5.454
77.723	70.628	-5.816
78.853	70.607	-6.327
80.000	70.536	-6.545
81.164	70.565	-6.946
82.344	70.506	-7.659
83.542	70.493	-8.121
84.757	70.449	-8.833
85.990	70.404	-9.246
87.241	70.345	-9.665
88.510	70.289	-9.935
89.797	70.240	-10.257
91.103	70.174	-10.623
92.428	70.151	-10.973
93.773	70.091	-11.425
95.137	70.065	-11.740
96.520	70.037	-12.147
97.924	69.996	-12.442
99.349	69.945	-12.940
100.794	69.845	-12.994
102.260	69.831	-13.400
103.747	69.766	-13.738
105.256	69.752	-14.037
106.787	69.713	-14.289
108.340	69.682	-14.702
109.916	69.626	-14.953
111.515	69.542	-15.427
113.137	69.500	-15.774
114.783	69.472	-16.319
116.452	69.370	-16.515
118.146	69.315	-16.845
119.865	69.414	-16.357
121.608	69.177	-17.353
123.377	69.147	-17.336
125.171	69.093	-17.510
126.992	69.046	-17.738
128.839	68.988	-18.155
130.713	68.885	-18.220
132.615	68.834	-18.584
134.543	68.796	-18.703
136.500	68.740	-19.181
138.486	68.669	-19.418
140.500	68.623	-19.791
142.544	68.480	-19.831
144.617	68.408	-20.326
146.721	68.378	-19.562
148.855	68.310	-20.544
151.020	68.206	-20.748
153.217	68.151	-20.367
155.445	67.901	-20.301
157.706	68.264	-20.807
160.000	68.060	-20.649
162.327	67.851	-20.593
164.688	67.876	-21.175
167.084	67.633	-21.269
169.514	67.601	-21.284
171.980	67.477	-20.701
174.481	67.369	-20.171
177.019	67.312	-19.556
179.594	67.212	-19.847
182.206	67.258	-21.474
184.856	67.347	-20.645
187.545	67.491	-19.999
190.273	67.277	-20.281
193.041	67.278	-20.493
195.849	67.247	-20.762
198.697	67.177	-21.138
201.587	67.088	-21.023
204.520	67.005	-21.121
207.494	66.985	-21.433
210.512	66.914	-21.448
213.574	66.836	-21.526
216.681	66.744	-21.804
219.833	66.652	-21.647
223.030	66.577	-21.831
226.274	66.546	-21.432
229.565	66.450	-21.792
232.905	66.362	-21.730
236.292	66.287	-21.692
239.729	66.217	-21.685
243.216	66.178	-21.711
246.754	66.039	-21.836
250.343	65.955	-21.713
253.984	65.857	-21.640
257.678	65.781	-21.110
261.426	65.762	-21.127
265.229	65.682	-21.098
269.087	65.604	-21.016
273.001	65.496	-20.813
276.972	65.438	-20.632
281.000	65.336	-20.530
285.088	65.279	-20.084
289.234	65.255	-19.879
293.441	65.209	-20.018
297.710	65.136	-20.050
302.040	65.036	-19.911
306.433	64.962	-19.797
310.890	64.913	-19.435
315.412	64.833	-19.328
320.000	64.728	-19.171
324.655	64.634	-18.636
329.377	64.571	-18.487
334.168	64.495	-18.293
339.028	64.433	-17.871
343.959	64.353	-17.629
348.962	64.252	-17.342
354.038	64.199	-16.969
359.188	64.136	-16.618
364.412	64.063	-16.129
369.713	63.998	-15.798
375.090	63.918	-15.326
380.546	63.876	-15.015
386.081	63.811	-14.631
391.697	63.756	-14.298
397.395	63.700	-13.943
403.175	63.596	-13.596
409.039	63.579	-13.079
414.989	63.484	-12.857
421.025	63.400	-12.289
427.149	63.344	-11.930
433.362	63.307	-11.219
439.665	63.256	-10.737
446.060	63.192	-10.284
452.548	63.171	-9.707
459.131	63.173	-9.405
465.809	63.068	-9.318
472.584	62.991	-8.778
479.458	62.937	-8.192
486.432	62.906	-7.664
493.507	62.797	-7.476
500.686	62.726	-6.681
507.968	62.691	-5.976
515.357	62.641	-5.519
522.853	62.591	-4.928
530.458	62.482	-4.475
538.174	62.467	-3.559
546.002	62.404	-3.088
553.943	62.365	-2.268
562.001	62.327	-1.562
570.175	62.291	-0.995
578.469	62.234	-0.262
586.883	62.211	0.473
595.419	62.110	1.092
604.080	62.080	1.997
612.866	62.067	2.863
621.780	62.044	3.451
630.824	61.942	4.219
640.000	61.983	5.377
649.309	61.923	6.100
658.753	61.889	7.171
668.335	61.968	8.241
678.056	61.958	8.678
687.919	61.948	9.520
697.925	61.913	10.048
708.076	61.893	10.927
718.376	61.905	11.900
728.825	61.898	12.520
739.426	61.891	13.283
750.181	61.878	13.829
761.093	61.783	14.500
772.163	61.675	15.546
783.394	61.610	17.194
794.789	61.615	18.614
806.349	61.607	20.312
818.078	61.677	21.655
829.977	61.739	23.443
842.050	61.859	24.289
854.297	61.920	25.446
866.724	62.055	26.155
879.330	62.073	27.476
892.120	62.188	28.389
905.097	62.234	29.000
918.262	62.330	30.177
931.618	62.389	31.288
945.169	62.491	32.271
958.917	62.560	33.285
972.864	62.626	34.059
987.015	62.734	35.150
1001.371	62.862	35.770
1015.937	62.938	37.112
1030.714	63.004	37.959
1045.706	63.189	39.344
1060.916	63.312	39.972
1076.347	63.438	40.508
1092.003	63.575	41.353
1107.887	63.695	42.032
1124.001	63.840	42.696
1140.350	63.976	43.411
1156.937	64.076	44.209
1173.765	64.218	44.720
1190.838	64.324	45.570
1208.159	64.515	46.808
1225.732	64.672	46.800
1243.561	64.851	47.140
1261.649	64.952	47.996
1280.000	65.072	48.189
1298.618	65.199	48.984
1317.507	65.338	49.844
1336.670	65.478	50.498
1356.113	65.608	50.975
1375.838	65.795	51.503
1395.850	65.887	52.343
1416.153	66.008	53.827
1436.751	66.260	54.461
1457.649	66.475	54.935
1478.851	66.705	55.727
1500.362	66.953	56.400
1522.185	67.223	56.995
1544.326	67.536	57.689
1566.789	67.829	58.317
1589.578	68.228	59.312
1612.699	68.556	59.945
1636.156	68.729	59.825
1659.955	68.784	59.859
1684.099	68.799	60.020
1708.595	68.875	60.180
1733.447	69.011	59.990
1758.661	69.190	59.752
1784.241	69.435	59.596
1810.193	69.773	60.320
1836.523	70.093	60.144
1863.236	70.429	60.029
1890.338	70.758	59.738
1917.833	71.092	59.458
1945.729	71.377	58.931
1974.030	71.759	59.016
2002.743	72.110	58.286
2031.873	72.476	57.442
2061.428	72.788	56.694
2091.412	73.175	55.767
2121.832	73.481	54.644
2152.695	73.776	52.844
2184.007	74.009	51.780
2215.774	74.334	50.360
2248.003	74.648	48.567
2280.701	74.914	46.495
2313.874	75.163	44.237
2347.530	75.353	42.517
2381.676	75.547	40.065
2416.318	75.725	37.746
2451.464	75.846	35.031
2487.122	75.888	32.571
2523.298	75.954	30.077
2560.000	75.870	27.890
2597.236	75.882	26.094
2635.014	75.871	24.083
2673.341	75.833	22.127
2712.226	75.673	20.194
2751.676	75.617	18.861
2791.700	75.526	17.728
2832.306	75.442	16.189
2873.503	75.369	15.307
2915.299	75.272	13.239
2957.703	75.149	12.617
3000.724	75.011	11.952
3044.370	74.898	11.378
3088.652	74.768	10.575
3133.577	74.701	10.531
3179.156	74.707	10.584
3225.398	74.721	10.485
3272.312	74.807	10.424
3319.909	74.841	9.776
3368.198	74.940	9.492
3417.190	75.064	9.057
3466.894	75.180	8.006
3517.321	75.261	7.331
3568.482	75.365	6.595
3620.387	75.454	5.614
3673.046	75.660	4.332
3726.472	75.759	3.097
3780.675	75.955	1.804
3835.666	76.241	-0.332
3891.457	76.474	-2.880
3948.060	76.691	-5.659
4005.486	76.893	-9.012
4063.747	77.059	-13.848
4122.855	76.972	-18.475
4182.824	76.762	-23.064
4243.664	76.378	-28.323
4305.390	75.792	-32.390
4368.013	75.113	-36.290
4431.547	74.416	-38.508
4496.005	73.640	-40.968
4561.401	72.852	-42.178
4627.749	72.161	-43.457
4695.061	71.367	-44.279
4763.352	70.571	-44.228
4832.637	69.888	-43.357
4902.929	69.192	-42.572
4974.244	68.574	-41.079
5046.596	67.987	-39.909
5120.000	67.458	-38.099
5194.472	66.875	-35.398
5270.027	66.373	-32.970
5346.682	65.909	-29.932
5424.451	65.509	-27.379
5503.352	65.067	-24.538
5583.399	64.593	-20.847
5664.612	64.218	-17.454
5747.006	63.858	-13.687
5830.598	63.562	-10.016
5915.406	63.274	-6.620
6001.447	63.086	-2.450
6088.740	62.875	1.538
6177.303	62.800	5.643
6267.154	62.766	9.789
6358.312	62.671	13.998
6450.796	62.697	18.071
6544.625	62.775	22.862
6639.818	62.924	27.220
6736.397	63.043	31.416
6834.380	63.255	35.671
6933.789	63.535	40.476
7034.643	63.927	44.805
7136.964	64.299	49.335
7240.773	64.723	53.578
7346.093	65.260	58.137
7452.944	65.934	62.121
7561.350	66.701	66.395
7671.332	67.456	70.047
7782.915	68.491	73.681
7896.120	69.541	76.398
8010.971	70.829	78.164
8127.493	72.210	79.676
8245.711	74.044	78.740
8365.647	76.125	74.517
8487.328	78.244	64.273
8610.779	79.866	47.133
8736.026	79.952	25.904
8863.095	78.626	9.318
8992.011	76.943	1.157
9122.803	75.501	-2.113
9255.497	74.360	-3.473
9390.121	73.445	-2.417
9526.704	72.857	-0.419
9665.273	72.431	1.106
9805.857	72.258	3.148
9948.487	72.244	5.773
10093.191	72.447	7.131
10240.000	72.811	8.309
10388.944	73.513	8.918
10540.055	74.275	7.450
10693.363	75.272	3.783
10848.902	76.311	-3.711
11006.703	77.130	-15.770
11166.799	77.482	-30.919
11329.224	76.821	-48.238
11494.012	75.247	-62.573
11661.195	73.433	-74.152
11830.812	71.383	-83.502
12002.895	69.131	-90.494
12177.480	66.629	-95.940
12354.606	63.885	-98.493
12534.309	60.947	-97.884
12716.624	57.849	-92.031
12901.592	54.986	-81.556
13089.250	52.550	-65.347
13279.637	51.236	-46.845
13472.794	50.454	-28.965
13668.760	50.455	-11.713
13867.577	50.805	2.161
14069.285	51.401	13.369
14273.928	52.401	21.873
14481.547	53.535	28.349
14692.186	55.069	30.519
14905.889	56.490	29.264
15122.700	57.415	22.448
15342.664	57.387	13.551
15565.829	56.005	5.747
15792.239	53.505	5.049
16021.942	50.681	12.835
16254.986	48.621	30.507
16491.422	48.358	55.502
16731.295	51.070	80.617
16974.656	57.513	91.680
17221.559	60.964	60.488
17472.053	60.579	39.252
17726.189	59.566	31.022
17984.021	59.537	29.661
18245.605	60.540	25.931
18510.994	62.011	11.160
18780.242	61.996	-13.675
19053.408	59.709	-34.844
19330.547	57.110	-48.303
19611.715	54.437	-63.108
19896.975	50.485	-78.484
