* Measurement data measured by REW V5.19
* Source: Mic in at front panel (Pink) (Realtek(R) Audio), no input selected, L, volume: no control
* Format: 256k Log Swept Sine, 1 sweep at -12.0 dBFS  With no timing reference
* Dated: Aug 2, 2021 8:00:43 PM
* REW Settings:
*  C-weighting compensation: Off
*  Target level: 75.0 dB
* Note: KZ Z3
* Measurement: Aug 2 20:00:43
* Smoothing: 1/24 octave
* Frequency Step: 1/48 octave
* Start Frequency: 20.3 Hz
*
* Freq(Hz)	SPL(dB)	Phase(degrees)
20.291	80.520	-178.624
20.586	80.516	-178.857
20.885	80.509	-179.299
21.189	80.506	-179.773
21.497	80.503	179.694
21.810	80.491	179.073
22.127	80.462	178.391
22.449	80.416	177.715
22.776	80.360	177.119
23.107	80.308	176.626
23.443	80.277	176.189
23.784	80.270	175.701
24.130	80.281	175.063
24.481	80.293	174.246
24.837	80.290	173.310
25.198	80.268	172.368
25.565	80.236	171.515
25.937	80.205	170.773
26.314	80.187	170.094
26.697	80.177	169.412
27.085	80.168	168.707
27.479	80.153	168.016
27.879	80.132	167.389
28.284	80.113	166.835
28.696	80.101	166.304
29.113	80.091	165.738
29.537	80.074	165.133
29.966	80.044	164.541
30.402	80.009	164.014
30.844	79.976	163.545
31.293	79.953	163.075
31.748	79.935	162.542
32.210	79.912	161.944
32.678	79.882	161.321
33.154	79.848	160.712
33.636	79.817	160.117
34.125	79.791	159.503
34.621	79.767	158.850
35.125	79.742	158.167
35.636	79.714	157.489
36.154	79.689	156.828
36.680	79.670	156.143
37.214	79.651	155.388
37.755	79.616	154.591
38.304	79.562	153.878
38.861	79.508	153.349
39.427	79.480	152.924
40.000	79.478	152.373
40.582	79.467	151.594
41.172	79.418	150.771
41.771	79.344	150.160
42.379	79.291	149.772
42.995	79.275	149.323
43.620	79.268	148.638
44.255	79.240	147.826
44.898	79.202	147.047
45.552	79.170	146.250
46.214	79.134	145.384
46.886	79.088	144.568
47.568	79.056	143.852
48.260	79.047	143.055
48.962	79.028	142.104
49.674	78.981	141.176
50.397	78.921	140.422
51.130	78.869	139.823
51.874	78.844	139.257
52.628	78.843	138.487
53.394	78.826	137.378
54.170	78.759	136.154
54.958	78.660	135.124
55.758	78.571	134.327
56.569	78.520	133.619
57.391	78.508	132.808
58.226	78.505	131.736
59.073	78.468	130.491
59.932	78.389	129.389
60.804	78.317	128.522
61.688	78.277	127.495
62.586	78.215	126.081
63.496	78.100	124.611
64.420	77.976	123.308
65.357	77.883	122.030
66.307	77.807	120.648
67.272	77.722	119.310
68.250	77.636	118.190
69.243	77.546	117.274
70.250	77.465	116.616
71.272	77.421	115.591
72.309	77.254	113.683
73.360	76.863	112.199
74.427	76.459	111.497
75.510	76.080	110.664
76.608	75.758	110.518
77.723	75.727	109.599
78.853	75.676	106.663
80.000	75.449	103.829
81.164	75.194	101.803
82.344	74.921	100.411
83.542	74.615	99.822
84.757	74.356	99.946
85.990	74.183	99.651
87.241	73.947	98.549
88.510	73.610	97.626
89.797	73.346	97.079
91.103	73.162	95.820
92.428	72.861	94.319
93.773	72.474	93.714
95.137	72.127	93.736
96.520	71.814	93.573
97.924	71.447	93.212
99.349	71.038	93.087
100.794	70.635	93.186
102.260	70.251	93.427
103.747	69.893	93.743
105.256	69.563	94.116
106.787	69.264	94.646
108.340	68.989	95.457
109.916	68.712	96.555
111.515	68.402	97.776
113.137	68.064	98.916
114.783	67.777	99.823
116.452	67.645	100.447
118.146	67.681	100.753
119.865	67.655	100.710
121.608	67.341	101.882
123.377	66.958	104.344
125.171	66.639	106.345
126.992	66.399	107.408
128.839	66.247	108.156
130.713	66.161	109.158
132.615	66.065	110.398
134.543	65.923	111.546
136.500	65.775	112.358
138.486	65.681	112.919
140.500	65.657	113.507
142.544	65.650	114.101
144.617	65.547	114.827
146.721	65.378	116.056
148.855	65.237	117.261
151.020	65.122	118.089
153.217	65.019	118.801
155.445	64.937	119.636
157.706	64.869	120.517
160.000	64.811	121.223
162.327	64.742	121.647
164.688	64.654	122.197
167.084	64.568	122.928
169.514	64.468	123.685
171.980	64.367	124.492
174.481	64.303	125.453
177.019	64.307	126.410
179.594	64.332	126.984
182.206	64.321	127.247
184.856	64.275	127.411
187.545	64.204	127.574
190.273	64.117	127.810
193.041	64.034	128.220
195.849	63.967	128.696
198.697	63.902	129.117
201.587	63.835	129.480
204.520	63.767	129.868
207.494	63.697	130.283
210.512	63.631	130.698
213.574	63.570	131.108
216.681	63.507	131.550
219.833	63.432	131.969
223.030	63.355	132.323
226.274	63.293	132.660
229.565	63.236	133.094
232.905	63.162	133.645
236.292	63.080	134.153
239.729	63.010	134.540
243.216	62.948	134.879
246.754	62.887	135.234
250.343	62.820	135.598
253.984	62.750	135.988
257.678	62.678	136.403
261.426	62.606	136.838
265.229	62.540	137.279
269.087	62.476	137.713
273.001	62.408	138.132
276.972	62.345	138.527
281.000	62.286	138.908
285.088	62.224	139.295
289.234	62.164	139.699
293.441	62.108	140.089
297.710	62.047	140.480
302.040	61.975	140.913
306.433	61.914	141.364
310.890	61.865	141.822
315.412	61.805	142.263
320.000	61.735	142.695
324.655	61.669	143.121
329.377	61.609	143.550
334.168	61.552	143.968
339.028	61.496	144.353
343.959	61.441	144.751
348.962	61.381	145.171
354.038	61.317	145.598
359.188	61.253	146.020
364.412	61.184	146.499
369.713	61.116	147.054
375.090	61.062	147.507
380.546	61.018	147.775
386.081	60.971	148.129
391.697	60.913	148.591
397.395	60.850	149.041
403.175	60.792	149.435
409.039	60.727	149.908
414.989	60.674	150.308
421.025	60.606	150.668
427.149	60.546	151.250
433.362	60.513	151.767
439.665	60.475	151.999
446.060	60.376	152.132
452.548	60.205	152.981
459.131	60.177	154.560
465.809	60.251	155.263
472.584	60.216	155.433
479.458	60.099	155.743
486.432	59.978	155.909
493.507	59.904	155.897
500.686	59.886	156.121
507.968	59.848	156.853
515.357	59.817	157.142
522.853	59.728	156.807
530.458	59.523	156.639
538.174	59.350	156.711
546.002	59.349	156.860
553.943	59.445	158.060
562.001	59.413	159.875
570.175	59.340	160.768
578.469	59.277	161.565
586.883	59.185	162.234
595.419	59.101	162.801
604.080	59.029	163.371
612.866	58.958	164.032
621.780	58.895	164.738
630.824	58.835	165.411
640.000	58.765	166.110
649.309	58.695	166.858
658.753	58.635	167.640
668.335	58.584	168.437
678.056	58.538	169.185
687.919	58.484	169.916
697.925	58.424	170.781
708.076	58.361	171.743
718.376	58.300	172.720
728.825	58.244	173.701
739.426	58.198	174.669
750.181	58.157	175.626
761.093	58.121	176.610
772.163	58.086	177.637
783.394	58.053	178.695
794.789	58.025	179.762
806.349	58.008	-179.145
818.078	57.995	-178.013
829.977	57.984	-176.883
842.050	57.972	-175.774
854.297	57.963	-174.662
866.724	57.964	-173.523
879.330	57.973	-172.368
892.120	57.987	-171.182
905.097	58.003	-169.973
918.262	58.024	-168.777
931.618	58.055	-167.581
945.169	58.098	-166.400
958.917	58.146	-165.237
972.864	58.197	-164.080
987.015	58.257	-162.949
1001.371	58.322	-161.855
1015.937	58.389	-160.783
1030.714	58.458	-159.767
1045.706	58.532	-158.767
1060.916	58.612	-157.724
1076.347	58.697	-156.694
1092.003	58.784	-155.696
1107.887	58.870	-154.740
1124.001	58.955	-153.810
1140.350	59.043	-152.895
1156.937	59.135	-152.007
1173.765	59.229	-151.094
1190.838	59.325	-150.140
1208.159	59.418	-149.188
1225.732	59.518	-148.253
1243.561	59.625	-147.335
1261.649	59.735	-146.423
1280.000	59.848	-145.518
1298.618	59.965	-144.608
1317.507	60.084	-143.701
1336.670	60.209	-142.795
1356.113	60.342	-141.883
1375.838	60.489	-140.966
1395.850	60.647	-140.043
1416.153	60.814	-139.106
1436.751	60.986	-138.179
1457.649	61.157	-137.293
1478.851	61.327	-136.419
1500.362	61.495	-135.499
1522.185	61.659	-134.534
1544.326	61.820	-133.555
1566.789	61.981	-132.584
1589.578	62.145	-131.642
1612.699	62.316	-130.733
1636.156	62.494	-129.860
1659.955	62.675	-129.014
1684.099	62.859	-128.181
1708.595	63.051	-127.342
1733.447	63.256	-126.477
1758.661	63.470	-125.619
1784.241	63.692	-124.821
1810.193	63.925	-124.105
1836.523	64.171	-123.446
1863.236	64.429	-122.840
1890.338	64.702	-122.299
1917.833	64.999	-121.816
1945.729	65.331	-121.402
1974.030	65.688	-121.054
2002.743	66.061	-120.759
2031.873	66.456	-120.526
2061.428	66.883	-120.388
2091.412	67.347	-120.447
2121.832	67.834	-120.832
2152.695	68.324	-121.608
2184.007	68.799	-122.751
2215.774	69.257	-124.227
2248.003	69.696	-126.011
2280.701	70.111	-128.096
2313.874	70.493	-130.488
2347.530	70.831	-133.190
2381.676	71.114	-136.166
2416.318	71.327	-139.334
2451.464	71.459	-142.560
2487.122	71.507	-145.638
2523.298	71.491	-148.340
2560.000	71.452	-150.547
2597.236	71.438	-152.365
2635.014	71.471	-154.102
2673.341	71.533	-156.073
2712.226	71.580	-158.383
2751.676	71.575	-160.925
2791.700	71.504	-163.516
2832.306	71.370	-165.999
2873.503	71.180	-168.247
2915.299	70.945	-170.161
2957.703	70.680	-171.673
3000.724	70.402	-172.768
3044.370	70.124	-173.448
3088.652	69.861	-173.740
3133.577	69.628	-173.686
3179.156	69.440	-173.361
3225.398	69.307	-172.885
3272.312	69.222	-172.391
3319.909	69.177	-171.998
3368.198	69.155	-171.752
3417.190	69.143	-171.629
3466.894	69.131	-171.576
3517.321	69.116	-171.538
3568.482	69.090	-171.465
3620.387	69.054	-171.240
3673.046	69.019	-170.736
3726.472	69.001	-169.977
3780.675	69.018	-169.042
3835.666	69.103	-168.022
3891.457	69.253	-167.020
3948.060	69.450	-166.131
4005.486	69.689	-165.431
4063.747	69.968	-164.959
4122.855	70.291	-164.710
4182.824	70.659	-164.710
4243.664	71.071	-165.046
4305.390	71.521	-165.819
4368.013	72.008	-167.105
4431.547	72.527	-169.082
4496.005	73.049	-172.044
4561.401	73.513	-176.104
4627.749	73.871	178.926
4695.061	74.102	173.335
4763.352	74.203	167.374
4832.637	74.181	161.162
4902.929	74.034	154.673
4974.244	73.728	147.978
5046.596	73.229	141.438
5120.000	72.535	135.559
5194.472	71.680	130.745
5270.027	70.721	127.198
5346.682	69.720	124.886
5424.451	68.725	123.651
5503.352	67.760	123.315
5583.399	66.842	123.702
5664.612	65.980	124.686
5747.006	65.182	126.157
5830.598	64.450	128.024
5915.406	63.782	130.236
6001.447	63.175	132.728
6088.740	62.633	135.415
6177.303	62.156	138.282
6267.154	61.740	141.367
6358.312	61.385	144.642
6450.796	61.096	148.064
6544.625	60.871	151.599
6639.818	60.716	155.220
6736.397	60.639	158.898
6834.380	60.644	162.591
6933.789	60.736	166.264
7034.643	60.921	169.824
7136.964	61.215	173.155
7240.773	61.639	176.187
7346.093	62.221	178.800
7452.944	62.987	-179.400
7561.350	63.964	-178.975
7671.332	65.131	179.314
7782.915	66.357	174.277
7896.120	67.361	164.613
8010.971	67.777	150.502
8127.493	67.332	134.954
8245.711	66.031	122.227
8365.647	64.159	114.556
8487.328	62.081	111.533
8610.779	60.078	111.759
8736.026	58.280	114.046
8863.095	56.716	117.714
8992.011	55.361	122.378
9122.803	54.171	127.728
9255.497	53.133	133.601
9390.121	52.235	139.950
9526.704	51.461	146.719
9665.273	50.824	153.895
9805.857	50.333	161.549
9948.487	49.992	169.587
10093.191	49.826	177.862
10240.000	49.864	-173.648
10388.944	50.119	-165.035
10540.055	50.618	-156.509
10693.363	51.425	-148.340
10848.902	52.655	-140.776
11006.703	54.455	-134.461
11166.799	56.871	-131.197
11329.224	59.509	-134.751
11494.012	61.477	-149.314
11661.195	61.933	-172.293
11830.812	60.693	167.765
12002.895	58.360	158.169
12177.480	55.861	156.657
12354.606	53.802	158.970
12534.309	52.259	162.718
12716.624	51.076	166.881
12901.592	50.104	171.133
13089.250	49.242	175.538
13279.637	48.422	-179.701
13472.794	47.632	-174.669
13668.760	46.904	-169.192
13867.577	46.260	-162.967
14069.285	45.708	-155.980
14273.928	45.291	-148.440
14481.547	45.047	-140.510
14692.186	45.021	-132.189
14905.889	45.282	-123.683
15122.700	45.910	-115.199
15342.664	47.034	-107.505
15565.829	48.791	-102.038
15792.239	50.990	-101.548
16021.942	52.890	-110.245
16254.986	53.579	-128.122
16491.422	52.632	-145.687
16731.295	50.413	-153.733
16974.656	47.780	-152.324
17221.559	45.544	-145.699
17472.053	44.036	-139.321
17726.189	43.402	-148.157
17984.021	44.790	151.670
18245.605	48.168	35.720
18510.994	50.413	-59.679
18780.242	50.335	-107.072
19053.408	48.610	-124.447
19330.547	46.438	-127.301
19611.715	44.781	-124.919
19896.975	44.053	-121.950
