* Measurement data measured by REW V5.19
* Source: Mic in at front panel (Pink) (Realtek(R) Audio), no input selected, L, volume: no control
* Format: 256k Log Swept Sine, 1 sweep at -12.0 dBFS  With no timing reference
* Dated: Jun 26, 2021 1:26:40 PM
* REW Settings:
*  C-weighting compensation: Off
*  Target level: 75.0 dB
* Note: MEMT R1
* Measurement: Jun 26 13:26:40
* Smoothing: None
* Frequency Step: 1/48 octave
* Start Frequency: 20.3 Hz
*
* Freq(Hz)	SPL(dB)	Phase(degrees)
20.291	79.797	11.474
20.586	79.780	10.924
20.885	79.751	10.543
21.189	79.701	10.299
21.497	79.670	10.142
21.810	79.678	9.968
22.127	79.706	9.672
22.449	79.731	9.186
22.776	79.749	8.522
23.107	79.750	7.769
23.443	79.719	7.060
23.784	79.680	6.495
24.130	79.654	6.086
24.481	79.655	5.753
24.837	79.673	5.377
25.198	79.687	4.885
25.565	79.703	4.284
25.937	79.710	3.654
26.314	79.699	3.081
26.697	79.688	2.610
27.085	79.672	2.218
27.479	79.648	1.850
27.879	79.639	1.461
28.284	79.616	1.045
28.696	79.593	0.615
29.113	79.577	0.189
29.537	79.548	-0.230
29.966	79.518	-0.647
30.402	79.489	-1.078
30.844	79.471	-1.552
31.293	79.469	-2.099
31.748	79.457	-2.714
32.210	79.432	-3.337
32.678	79.381	-3.902
33.154	79.353	-4.403
33.636	79.347	-4.882
34.125	79.335	-5.351
34.621	79.326	-5.773
35.125	79.323	-6.160
35.636	79.322	-6.590
36.154	79.313	-7.053
36.680	79.289	-7.405
37.214	79.268	-7.632
37.755	79.249	-7.982
38.304	79.195	-8.527
38.861	79.111	-8.909
39.427	79.051	-9.039
40.000	79.057	-9.568
40.582	79.053	-10.675
41.172	78.973	-11.401
41.771	78.981	-11.547
42.379	79.113	-12.480
42.995	79.114	-14.148
43.620	79.004	-14.527
44.255	79.155	-14.179
44.898	79.337	-16.441
45.552	78.913	-19.118
46.214	78.268	-16.374
46.886	78.614	-11.548
47.568	79.192	-13.652
48.260	78.790	-17.191
48.962	78.226	-14.399
49.674	78.665	-12.170
50.397	78.911	-16.453
51.130	78.257	-19.360
51.874	77.844	-16.356
52.628	78.258	-14.879
53.394	78.545	-17.520
54.170	78.408	-20.451
54.958	78.065	-21.368
55.758	77.875	-19.818
56.569	78.075	-18.546
57.391	78.291	-19.489
58.226	78.265	-21.136
59.073	78.072	-22.392
59.932	77.805	-22.680
60.804	77.638	-21.978
61.688	77.638	-21.514
62.586	77.701	-21.722
63.496	77.788	-22.373
64.420	77.832	-23.566
65.357	77.756	-24.761
66.307	77.615	-25.491
67.272	77.464	-25.809
68.250	77.321	-25.745
69.243	77.210	-25.369
70.250	77.160	-25.092
71.272	77.110	-25.048
72.309	77.075	-25.159
73.360	77.036	-25.388
74.427	77.029	-25.826
75.510	76.943	-26.047
76.608	76.957	-26.186
77.723	76.875	-26.738
78.853	76.853	-26.983
80.000	76.720	-27.240
81.164	76.728	-27.628
82.344	76.516	-28.200
83.542	76.491	-28.780
84.757	76.308	-29.122
85.990	76.399	-30.447
87.241	76.187	-30.617
88.510	76.328	-31.914
89.797	75.996	-31.208
91.103	76.277	-30.906
92.428	76.111	-32.467
93.773	75.883	-32.944
95.137	75.631	-31.701
96.520	75.872	-32.324
97.924	75.576	-32.307
99.349	75.839	-32.719
100.794	75.456	-32.988
102.260	75.612	-32.691
103.747	75.316	-33.778
105.256	75.389	-32.844
106.787	75.236	-34.795
108.340	75.105	-33.295
109.916	75.202	-34.402
111.515	74.926	-34.496
113.137	75.004	-34.079
114.783	74.807	-35.226
116.452	74.636	-34.709
118.146	74.717	-35.130
119.865	73.950	-36.056
121.608	74.424	-33.687
123.377	74.393	-35.100
125.171	74.233	-35.767
126.992	74.129	-34.653
128.839	74.146	-34.930
130.713	73.952	-36.333
132.615	73.934	-36.566
134.543	74.003	-34.417
136.500	73.756	-33.801
138.486	73.045	-32.078
140.500	73.282	-35.255
142.544	73.504	-35.324
144.617	73.427	-36.529
146.721	73.369	-36.808
148.855	73.023	-36.146
151.020	72.945	-36.627
153.217	72.627	-38.173
155.445	72.887	-35.200
157.706	72.666	-34.979
160.000	74.069	-41.274
162.327	71.376	-36.222
164.688	72.289	-37.911
167.084	72.760	-35.623
169.514	72.455	-33.223
171.980	72.192	-32.740
174.481	71.981	-33.347
177.019	72.151	-31.315
179.594	71.806	-30.334
182.206	71.966	-30.226
184.856	72.329	-32.661
187.545	72.245	-31.553
190.273	72.188	-31.114
193.041	72.103	-32.352
195.849	71.895	-33.092
198.697	71.957	-33.310
201.587	71.873	-33.452
204.520	71.705	-33.534
207.494	71.647	-33.345
210.512	71.549	-33.083
213.574	71.439	-33.384
216.681	71.337	-33.424
219.833	71.209	-33.038
223.030	71.105	-32.881
226.274	70.993	-32.759
229.565	71.020	-32.194
232.905	70.878	-33.038
236.292	70.646	-32.428
239.729	70.585	-32.058
243.216	70.499	-32.249
246.754	70.394	-32.348
250.343	70.315	-32.085
253.984	70.232	-31.632
257.678	70.125	-30.963
261.426	70.058	-30.724
265.229	70.006	-30.566
269.087	70.053	-30.274
273.001	69.998	-30.062
276.972	69.755	-28.763
281.000	69.652	-28.859
285.088	69.482	-28.821
289.234	69.499	-28.497
293.441	69.463	-28.293
297.710	69.328	-28.038
302.040	69.207	-28.013
306.433	69.195	-27.542
310.890	69.063	-26.911
315.412	69.011	-26.932
320.000	68.878	-26.035
324.655	68.842	-26.332
329.377	68.730	-25.398
334.168	68.624	-25.463
339.028	68.536	-24.450
343.959	68.470	-24.277
348.962	68.354	-23.811
354.038	68.309	-23.267
359.188	68.233	-22.494
364.412	68.171	-21.546
369.713	68.243	-21.431
375.090	68.038	-21.089
380.546	67.959	-20.134
386.081	67.895	-19.185
391.697	67.845	-18.389
397.395	67.815	-18.150
403.175	67.825	-17.561
409.039	67.871	-18.025
414.989	67.840	-17.456
421.025	67.694	-16.547
427.149	67.626	-16.143
433.362	67.539	-15.296
439.665	67.518	-14.586
446.060	67.378	-14.238
452.548	67.256	-13.333
459.131	67.231	-13.288
465.809	67.281	-13.633
472.584	67.187	-12.403
479.458	67.160	-12.067
486.432	67.105	-10.974
493.507	66.980	-11.207
500.686	66.943	-9.983
507.968	66.998	-9.431
515.357	66.841	-8.569
522.853	66.807	-7.999
530.458	66.674	-7.433
538.174	66.655	-6.346
546.002	66.619	-5.651
553.943	66.912	-5.656
562.001	66.502	-3.966
570.175	66.485	-3.481
578.469	66.466	-2.831
586.883	66.522	-1.790
595.419	66.427	-0.672
604.080	66.319	0.286
612.866	66.346	1.004
621.780	66.330	1.872
630.824	66.198	2.791
640.000	66.227	3.697
649.309	66.273	4.306
658.753	66.205	5.821
668.335	66.273	6.884
678.056	66.311	7.929
687.919	66.290	8.714
697.925	66.247	9.216
708.076	66.215	10.414
718.376	66.264	11.345
728.825	66.345	12.755
739.426	66.318	12.938
750.181	66.316	14.313
761.093	66.294	15.662
772.163	66.294	16.197
783.394	66.283	17.879
794.789	66.391	18.205
806.349	66.339	19.974
818.078	66.496	21.001
829.977	66.506	22.340
842.050	66.633	23.201
854.297	66.699	24.137
866.724	66.794	24.699
879.330	66.798	25.829
892.120	66.855	26.879
905.097	66.900	27.555
918.262	66.987	29.109
931.618	67.090	29.932
945.169	67.293	31.550
958.917	67.250	31.759
972.864	67.499	33.357
987.015	67.468	34.019
1001.371	67.717	35.001
1015.937	67.821	36.163
1030.714	67.933	36.905
1045.706	68.120	37.696
1060.916	68.203	38.264
1076.347	68.299	39.542
1092.003	68.594	40.733
1107.887	68.749	40.668
1124.001	68.806	40.853
1140.350	69.003	40.991
1156.937	69.217	41.662
1173.765	69.326	42.521
1190.838	69.522	42.546
1208.159	69.788	45.567
1225.732	70.068	42.176
1243.561	70.419	44.256
1261.649	70.480	44.893
1280.000	70.417	43.125
1298.618	70.545	44.940
1317.507	70.671	45.089
1336.670	70.880	45.288
1356.113	71.001	45.277
1375.838	71.107	45.071
1395.850	71.268	44.759
1416.153	71.390	45.359
1436.751	71.471	45.073
1457.649	71.451	45.940
1478.851	71.650	47.141
1500.362	71.914	47.809
1522.185	72.142	47.902
1544.326	72.422	49.709
1566.789	72.672	49.880
1589.578	73.103	51.169
1612.699	73.363	51.594
1636.156	73.589	51.898
1659.955	73.883	48.292
1684.099	73.773	50.917
1708.595	73.944	50.742
1733.447	74.029	49.828
1758.661	74.233	49.677
1784.241	74.509	48.421
1810.193	74.803	49.389
1836.523	75.152	48.508
1863.236	75.556	47.665
1890.338	75.881	46.366
1917.833	76.202	44.919
1945.729	76.434	43.298
1974.030	76.781	43.107
2002.743	77.083	40.731
2031.873	77.457	38.925
2061.428	77.676	36.401
2091.412	77.854	34.270
2121.832	78.099	32.457
2152.695	78.132	28.467
2184.007	78.183	26.422
2215.774	78.298	23.572
2248.003	78.298	21.023
2280.701	78.236	18.315
2313.874	78.119	15.448
2347.530	77.972	13.440
2381.676	77.827	11.223
2416.318	77.607	9.080
2451.464	77.406	6.973
2487.122	77.162	5.361
2523.298	76.862	3.921
2560.000	76.461	2.344
2597.236	76.134	2.099
2635.014	75.892	1.792
2673.341	75.617	1.346
2712.226	75.271	1.180
2751.676	75.074	1.332
2791.700	74.832	1.869
2832.306	74.608	1.946
2873.503	74.315	2.433
2915.299	74.189	1.655
2957.703	74.116	3.301
3000.724	73.852	3.654
3044.370	73.654	4.545
3088.652	73.466	4.419
3133.577	73.274	5.771
3179.156	73.173	6.342
3225.398	73.053	7.326
3272.312	72.973	8.630
3319.909	72.761	9.504
3368.198	72.691	11.242
3417.190	72.591	12.357
3466.894	72.543	13.026
3517.321	72.354	14.644
3568.482	72.321	17.013
3620.387	72.283	18.949
3673.046	72.459	20.229
3726.472	72.438	21.690
3780.675	72.481	22.634
3835.666	72.676	23.735
3891.457	72.735	25.631
3948.060	72.703	27.449
4005.486	72.919	29.428
4063.747	73.201	30.144
4122.855	73.383	31.840
4182.824	73.521	33.825
4243.664	73.679	35.189
4305.390	73.826	36.836
4368.013	74.123	38.291
4431.547	74.415	40.460
4496.005	74.720	41.558
4561.401	75.078	43.351
4627.749	75.656	44.184
4695.061	76.111	44.663
4763.352	76.581	44.882
4832.637	77.368	45.091
4902.929	78.092	43.744
4974.244	78.867	42.636
5046.596	79.747	38.979
5120.000	80.540	34.657
5194.472	81.207	29.463
5270.027	81.771	21.924
5346.682	82.018	13.493
5424.451	81.762	4.433
5503.352	81.244	-3.422
5583.399	80.460	-9.047
5664.612	79.503	-13.484
5747.006	78.590	-16.434
5830.598	77.618	-17.840
5915.406	76.721	-18.085
6001.447	76.019	-17.977
6088.740	75.236	-16.766
6177.303	74.685	-15.380
6267.154	74.131	-13.637
6358.312	73.693	-11.365
6450.796	73.227	-8.978
6544.625	72.984	-6.256
6639.818	72.816	-3.055
6736.397	72.550	-0.334
6834.380	72.525	1.994
6933.789	72.452	6.675
7034.643	72.643	8.324
7136.964	72.821	12.646
7240.773	73.064	15.287
7346.093	73.462	18.538
7452.944	74.112	20.391
7561.350	74.891	22.804
7671.332	75.583	23.983
7782.915	76.843	23.395
7896.120	78.131	20.247
8010.971	79.714	13.123
8127.493	80.908	0.224
8245.711	81.222	-19.649
8365.647	80.012	-37.952
8487.328	77.796	-50.151
8610.779	75.653	-55.413
8736.026	73.747	-56.304
8863.095	72.104	-56.037
8992.011	70.633	-53.374
9122.803	69.464	-49.864
9255.497	68.447	-46.923
9390.121	67.531	-42.265
9526.704	66.819	-37.072
9665.273	66.144	-33.023
9805.857	65.669	-28.554
9948.487	65.233	-22.721
10093.191	64.850	-18.555
10240.000	64.671	-13.497
10388.944	64.611	-7.594
10540.055	64.635	-1.492
10693.363	64.807	3.778
10848.902	65.229	8.368
11006.703	65.780	12.985
11166.799	66.871	17.528
11329.224	68.165	18.484
11494.012	69.744	18.100
11661.195	71.786	11.098
11830.812	73.532	-7.572
12002.895	73.119	-32.875
12177.480	70.510	-50.543
12354.606	67.698	-56.617
12534.309	65.354	-57.012
12716.624	63.309	-54.287
12901.592	61.658	-49.423
13089.250	60.151	-43.765
13279.637	59.077	-37.272
13472.794	58.049	-31.134
13668.760	57.207	-23.709
13867.577	56.363	-16.874
14069.285	55.681	-9.468
14273.928	55.262	-1.867
14481.547	55.137	5.860
14692.186	55.329	12.714
14905.889	55.731	20.602
15122.700	56.267	26.934
15342.664	57.028	33.954
15565.829	57.979	39.691
15792.239	59.006	44.194
16021.942	60.286	45.462
16254.986	62.200	41.576
16491.422	64.221	25.761
16731.295	64.679	1.130
16974.656	62.757	-15.817
17221.559	60.679	-22.060
17472.053	59.314	-22.596
17726.189	58.626	-23.219
17984.021	58.604	-25.533
18245.605	58.887	-35.117
18510.994	57.911	-56.669
18780.242	54.393	-73.810
19053.408	49.916	-77.956
19330.547	45.801	-73.159
19611.715	42.010	-65.509
19896.975	38.406	-52.753
