* Measurement data measured by REW V5.19
* Source: Mic in at front panel (Pink) (Realtek(R) Audio), no input selected, L, volume: no control
* Format: 256k Log Swept Sine, 1 sweep at -12.0 dBFS  With no timing reference
* Dated: Jul 2, 2021 9:43:49 PM
* REW Settings:
*  C-weighting compensation: Off
*  Target level: 75.0 dB
* Note: Prisma Azul
* Measurement: Jul 2 21:43:49
* Smoothing: 1/24 octave
* Frequency Step: 1/48 octave
* Start Frequency: 20.3 Hz
*
* Freq(Hz)	SPL(dB)	Phase(degrees)
20.291	72.690	25.205
20.586	72.675	24.853
20.885	72.636	24.295
21.189	72.587	24.024
21.497	72.557	24.049
21.810	72.570	24.169
22.127	72.625	24.167
22.449	72.699	23.902
22.776	72.761	23.378
23.107	72.787	22.742
23.443	72.780	22.215
23.784	72.764	21.940
24.130	72.774	21.884
24.481	72.822	21.857
24.837	72.895	21.649
25.198	72.958	21.175
25.565	72.983	20.540
25.937	72.960	19.979
26.314	72.906	19.707
26.697	72.853	19.790
27.085	72.826	20.114
27.479	72.837	20.479
27.879	72.874	20.726
28.284	72.922	20.801
28.696	72.971	20.731
29.113	73.016	20.549
29.537	73.052	20.263
29.966	73.073	19.881
30.402	73.077	19.447
30.844	73.067	19.034
31.293	73.053	18.706
31.748	73.043	18.477
32.210	73.042	18.299
32.678	73.053	18.088
33.154	73.073	17.788
33.636	73.088	17.428
34.125	73.091	17.121
34.621	73.093	16.959
35.125	73.115	16.897
35.636	73.162	16.756
36.154	73.211	16.417
36.680	73.228	15.985
37.214	73.209	15.694
37.755	73.185	15.632
38.304	73.184	15.623
38.861	73.193	15.443
39.427	73.182	15.122
40.000	73.158	14.869
40.582	73.157	14.725
41.172	73.185	14.502
41.771	73.205	14.152
42.379	73.205	13.916
42.995	73.225	13.960
43.620	73.300	14.029
44.255	73.390	13.768
44.898	73.430	13.265
45.552	73.416	12.911
46.214	73.397	12.839
46.886	73.401	12.826
47.568	73.406	12.681
48.260	73.390	12.463
48.962	73.362	12.258
49.674	73.337	12.020
50.397	73.312	11.741
51.130	73.289	11.580
51.874	73.293	11.593
52.628	73.331	11.532
53.394	73.360	11.260
54.170	73.363	11.020
54.958	73.376	10.948
55.758	73.409	10.837
56.569	73.430	10.600
57.391	73.424	10.402
58.226	73.415	10.305
59.073	73.416	10.211
59.932	73.420	10.059
60.804	73.418	9.883
61.688	73.415	9.719
62.586	73.421	9.548
63.496	73.430	9.354
64.420	73.436	9.164
65.357	73.436	9.004
66.307	73.440	8.862
67.272	73.451	8.701
68.250	73.461	8.539
69.243	73.468	8.418
70.250	73.470	8.322
71.272	73.469	8.290
72.309	73.484	8.241
73.360	73.499	7.991
74.427	73.487	7.771
75.510	73.479	7.699
76.608	73.485	7.601
77.723	73.506	7.398
78.853	73.520	7.019
80.000	73.505	6.724
81.164	73.503	6.658
82.344	73.523	6.574
83.542	73.539	6.419
84.757	73.544	6.260
85.990	73.536	6.130
87.241	73.518	6.006
88.510	73.487	5.912
89.797	73.457	5.908
91.103	73.455	5.907
92.428	73.465	5.732
93.773	73.463	5.537
95.137	73.467	5.426
96.520	73.473	5.339
97.924	73.477	5.289
99.349	73.471	5.205
100.794	73.449	5.096
102.260	73.434	5.036
103.747	73.440	4.947
105.256	73.452	4.832
106.787	73.454	4.763
108.340	73.445	4.764
109.916	73.439	4.735
111.515	73.445	4.542
113.137	73.465	4.241
114.783	73.492	4.040
116.452	73.519	4.182
118.146	73.557	4.677
119.865	73.607	4.887
121.608	73.563	4.531
123.377	73.464	4.328
125.171	73.419	4.253
126.992	73.421	4.175
128.839	73.420	4.171
130.713	73.409	4.303
132.615	73.411	4.324
134.543	73.422	4.218
136.500	73.439	4.066
138.486	73.451	3.884
140.500	73.458	3.661
142.544	73.460	3.529
144.617	73.467	3.623
146.721	73.452	3.700
148.855	73.365	3.636
151.020	73.268	3.557
153.217	73.264	3.359
155.445	73.334	2.918
157.706	73.396	2.581
160.000	73.430	2.584
162.327	73.458	2.806
164.688	73.482	3.027
167.084	73.479	3.088
169.514	73.432	3.006
171.980	73.368	2.921
174.481	73.325	2.894
177.019	73.294	2.787
179.594	73.245	2.636
182.206	73.218	2.564
184.856	73.256	2.465
187.545	73.312	2.286
190.273	73.339	2.220
193.041	73.340	2.252
195.849	73.326	2.211
198.697	73.308	2.128
201.587	73.303	2.074
204.520	73.312	2.053
207.494	73.319	2.043
210.512	73.311	1.989
213.574	73.287	1.889
216.681	73.263	1.837
219.833	73.242	1.900
223.030	73.225	2.010
226.274	73.219	1.990
229.565	73.214	1.882
232.905	73.206	1.759
236.292	73.196	1.588
239.729	73.181	1.537
243.216	73.167	1.672
246.754	73.148	1.755
250.343	73.124	1.788
253.984	73.108	1.885
257.678	73.110	2.037
261.426	73.118	2.115
265.229	73.110	2.088
269.087	73.090	2.045
273.001	73.068	2.071
276.972	73.052	2.151
281.000	73.040	2.242
285.088	73.039	2.331
289.234	73.055	2.322
293.441	73.065	2.181
297.710	73.056	2.047
302.040	73.038	1.975
306.433	73.025	1.964
310.890	73.015	1.982
315.412	72.999	2.005
320.000	72.969	2.027
324.655	72.939	2.082
329.377	72.918	2.174
334.168	72.898	2.269
339.028	72.879	2.342
343.959	72.856	2.373
348.962	72.836	2.416
354.038	72.826	2.486
359.188	72.816	2.567
364.412	72.794	2.657
369.713	72.764	2.740
375.090	72.738	2.825
380.546	72.718	2.926
386.081	72.697	3.042
391.697	72.673	3.177
397.395	72.652	3.322
403.175	72.636	3.464
409.039	72.619	3.581
414.989	72.596	3.685
421.025	72.566	3.827
427.149	72.542	4.041
433.362	72.529	4.264
439.665	72.519	4.454
446.060	72.510	4.671
452.548	72.508	4.852
459.131	72.503	4.880
465.809	72.475	4.859
472.584	72.438	4.959
479.458	72.410	5.158
486.432	72.384	5.354
493.507	72.344	5.555
500.686	72.308	5.862
507.968	72.292	6.183
515.357	72.280	6.432
522.853	72.258	6.644
530.458	72.228	6.902
538.174	72.205	7.200
546.002	72.184	7.492
553.943	72.163	7.819
562.001	72.146	8.128
570.175	72.127	8.401
578.469	72.104	8.707
586.883	72.075	9.040
595.419	72.039	9.413
604.080	72.012	9.846
612.866	71.997	10.254
621.780	71.977	10.646
630.824	71.950	11.134
640.000	71.933	11.685
649.309	71.920	12.235
658.753	71.920	12.836
668.335	71.943	13.357
678.056	71.962	13.738
687.919	71.962	14.115
697.925	71.950	14.543
708.076	71.937	15.048
718.376	71.934	15.578
728.825	71.934	16.115
739.426	71.935	16.678
750.181	71.937	17.268
761.093	71.939	17.894
772.163	71.945	18.544
783.394	71.957	19.198
794.789	71.975	19.859
806.349	71.999	20.598
818.078	72.039	21.392
829.977	72.099	22.103
842.050	72.160	22.655
854.297	72.205	23.182
866.724	72.241	23.743
879.330	72.278	24.365
892.120	72.326	25.005
905.097	72.376	25.634
918.262	72.429	26.290
931.618	72.494	26.949
945.169	72.569	27.564
958.917	72.645	28.128
972.864	72.721	28.684
987.015	72.803	29.245
1001.371	72.884	29.789
1015.937	72.966	30.385
1030.714	73.062	31.031
1045.706	73.184	31.604
1060.916	73.314	31.971
1076.347	73.428	32.230
1092.003	73.536	32.490
1107.887	73.648	32.728
1124.001	73.761	32.944
1140.350	73.868	33.154
1156.937	73.967	33.362
1173.765	74.061	33.586
1190.838	74.164	33.870
1208.159	74.293	34.102
1225.732	74.427	34.142
1243.561	74.542	34.089
1261.649	74.639	34.053
1280.000	74.724	34.038
1298.618	74.804	34.062
1317.507	74.887	34.117
1336.670	74.973	34.147
1356.113	75.055	34.170
1375.838	75.128	34.226
1395.850	75.198	34.397
1416.153	75.292	34.688
1436.751	75.416	34.898
1457.649	75.543	34.972
1478.851	75.668	35.016
1500.362	75.802	35.063
1522.185	75.948	35.130
1544.326	76.107	35.251
1566.789	76.280	35.481
1589.578	76.463	35.735
1612.699	76.601	35.832
1636.156	76.637	35.831
1659.955	76.581	35.824
1684.099	76.490	35.830
1708.595	76.424	35.804
1733.447	76.411	35.705
1758.661	76.452	35.600
1784.241	76.541	35.627
1810.193	76.679	35.744
1836.523	76.838	35.755
1863.236	76.995	35.667
1890.338	77.148	35.535
1917.833	77.293	35.418
1945.729	77.436	35.400
1974.030	77.599	35.418
2002.743	77.776	35.278
2031.873	77.942	34.997
2061.428	78.094	34.665
2091.412	78.235	34.297
2121.832	78.362	33.863
2152.695	78.466	33.462
2184.007	78.576	33.199
2215.774	78.712	32.910
2248.003	78.855	32.486
2280.701	78.987	31.965
2313.874	79.102	31.456
2347.530	79.218	31.049
2381.676	79.354	30.595
2416.318	79.494	30.002
2451.464	79.629	29.336
2487.122	79.762	28.598
2523.298	79.883	27.775
2560.000	79.994	26.967
2597.236	80.113	26.101
2635.014	80.228	25.045
2673.341	80.317	23.861
2712.226	80.377	22.741
2751.676	80.435	21.726
2791.700	80.498	20.645
2832.306	80.558	19.442
2873.503	80.603	18.115
2915.299	80.614	16.717
2957.703	80.591	15.429
3000.724	80.557	14.227
3044.370	80.514	13.006
3088.652	80.454	11.846
3133.577	80.394	10.866
3179.156	80.356	9.951
3225.398	80.334	8.977
3272.312	80.311	7.872
3319.909	80.262	6.693
3368.198	80.191	5.574
3417.190	80.099	4.461
3466.894	79.966	3.373
3517.321	79.793	2.497
3568.482	79.613	1.816
3620.387	79.439	1.197
3673.046	79.263	0.540
3726.472	79.065	-0.046
3780.675	78.861	-0.426
3835.666	78.661	-0.622
3891.457	78.464	-0.512
3948.060	78.296	-0.041
4005.486	78.173	0.606
4063.747	78.074	1.227
4122.855	77.964	1.851
4182.824	77.846	2.551
4243.664	77.711	3.292
4305.390	77.561	4.200
4368.013	77.436	5.300
4431.547	77.359	6.401
4496.005	77.319	7.363
4561.401	77.311	8.201
4627.749	77.328	8.815
4695.061	77.348	9.254
4763.352	77.380	9.599
4832.637	77.426	9.759
4902.929	77.464	9.729
4974.244	77.491	9.630
5046.596	77.492	9.521
5120.000	77.464	9.622
5194.472	77.437	10.047
5270.027	77.432	10.676
5346.682	77.457	11.387
5424.451	77.496	12.007
5503.352	77.523	12.553
5583.399	77.552	13.118
5664.612	77.608	13.593
5747.006	77.699	13.848
5830.598	77.814	13.728
5915.406	77.924	13.267
6001.447	78.029	12.589
6088.740	78.127	11.679
6177.303	78.213	10.442
6267.154	78.259	8.800
6358.312	78.230	6.930
6450.796	78.120	5.050
6544.625	77.936	3.301
6639.818	77.684	1.742
6736.397	77.358	0.544
6834.380	76.979	-0.094
6933.789	76.581	-0.121
7034.643	76.186	0.372
7136.964	75.789	1.366
7240.773	75.406	2.912
7346.093	75.074	4.979
7452.944	74.820	7.398
7561.350	74.638	10.106
7671.332	74.536	13.109
7782.915	74.536	16.235
7896.120	74.630	19.185
8010.971	74.811	21.851
8127.493	75.108	24.134
8245.711	75.525	25.660
8365.647	75.994	26.097
8487.328	76.443	25.478
8610.779	76.840	23.974
8736.026	77.146	21.782
8863.095	77.345	19.308
8992.011	77.473	16.898
9122.803	77.557	14.534
9255.497	77.588	12.144
9390.121	77.575	9.725
9526.704	77.523	7.084
9665.273	77.380	4.160
9805.857	77.103	1.313
9948.487	76.704	-1.101
10093.191	76.203	-2.760
10240.000	75.639	-3.313
10388.944	75.088	-2.788
10540.055	74.608	-1.350
10693.363	74.236	0.888
10848.902	73.993	3.623
11006.703	73.919	6.642
11166.799	74.088	9.668
11329.224	74.516	12.190
11494.012	75.204	13.654
11661.195	76.125	13.087
11830.812	77.125	9.285
12002.895	77.929	1.315
12177.480	78.194	-10.380
12354.606	77.706	-22.903
12534.309	76.510	-32.689
12716.624	74.856	-37.859
12901.592	73.092	-38.588
13089.250	71.530	-36.067
13279.637	70.377	-32.044
13472.794	69.575	-27.945
13668.760	68.950	-23.948
13867.577	68.475	-20.253
14069.285	68.220	-17.277
14273.928	68.214	-15.483
14481.547	68.392	-15.180
14692.186	68.633	-16.607
14905.889	68.795	-19.766
15122.700	68.737	-24.391
15342.664	68.332	-29.845
15565.829	67.479	-35.242
15792.239	66.114	-39.390
16021.942	64.296	-40.986
16254.986	62.300	-39.195
16491.422	60.590	-34.283
16731.295	59.529	-27.421
16974.656	59.096	-19.945
17221.559	59.159	-12.788
17472.053	59.736	-6.592
17726.189	60.859	-2.240
17984.021	62.483	-1.375
18245.605	64.345	-6.573
18510.994	65.887	-20.289
18780.242	66.536	-42.604
19053.408	65.905	-69.526
19330.547	63.841	-93.869
19611.715	60.456	-109.048
19896.975	56.575	-114.238
