* Measurement data measured by REW V5.19
* Source: Mic in at front panel (Pink) (Realtek(R) Audio), no input selected, L, volume: no control
* Format: 256k Log Swept Sine, 1 sweep at -12.0 dBFS  With no timing reference
* Dated: Jun 24, 2021 6:16:05 PM
* REW Settings:
*  C-weighting compensation: Off
*  Target level: 75.0 dB
* Note: Senfer DT6
* Measurement: Jun 24 18:16:05
* Smoothing: 1/12 octave
* Frequency Step: 1/48 octave
* Start Frequency: 20.3 Hz
*
* Freq(Hz)	SPL(dB)	Phase(degrees)
20.291	79.724	7.417
20.586	79.719	7.248
20.885	79.705	6.868
21.189	79.686	6.404
21.497	79.662	5.891
21.810	79.635	5.351
22.127	79.606	4.800
22.449	79.575	4.244
22.776	79.546	3.682
23.107	79.519	3.112
23.443	79.495	2.527
23.784	79.474	1.924
24.130	79.455	1.304
24.481	79.434	0.673
24.837	79.413	0.044
25.198	79.389	-0.571
25.565	79.364	-1.159
25.937	79.338	-1.711
26.314	79.314	-2.224
26.697	79.292	-2.703
27.085	79.271	-3.159
27.479	79.251	-3.612
27.879	79.230	-4.074
28.284	79.207	-4.553
28.696	79.180	-5.046
29.113	79.148	-5.541
29.537	79.112	-6.031
29.966	79.073	-6.515
30.402	79.035	-7.005
30.844	78.998	-7.516
31.293	78.959	-8.054
31.748	78.919	-8.615
32.210	78.874	-9.184
32.678	78.828	-9.745
33.154	78.783	-10.292
33.636	78.744	-10.830
34.125	78.711	-11.372
34.621	78.681	-11.929
35.125	78.651	-12.497
35.636	78.618	-13.055
36.154	78.579	-13.574
36.680	78.537	-14.029
37.214	78.493	-14.423
37.755	78.449	-14.785
38.304	78.406	-15.156
38.861	78.360	-15.571
39.427	78.309	-16.040
40.000	78.252	-16.552
40.582	78.188	-17.082
41.172	78.121	-17.598
41.771	78.052	-18.075
42.379	77.987	-18.498
42.995	77.928	-18.870
43.620	77.877	-19.206
44.255	77.834	-19.530
44.898	77.797	-19.866
45.552	77.761	-20.230
46.214	77.722	-20.630
46.886	77.678	-21.066
47.568	77.625	-21.527
48.260	77.563	-22.006
48.962	77.495	-22.494
49.674	77.424	-22.981
50.397	77.355	-23.457
51.130	77.289	-23.913
51.874	77.226	-24.334
52.628	77.166	-24.708
53.394	77.109	-25.031
54.170	77.053	-25.305
54.958	76.998	-25.543
55.758	76.940	-25.757
56.569	76.876	-25.962
57.391	76.803	-26.175
58.226	76.720	-26.413
59.073	76.629	-26.689
59.932	76.532	-27.006
60.804	76.435	-27.362
61.688	76.342	-27.747
62.586	76.257	-28.144
63.496	76.181	-28.537
64.420	76.114	-28.906
65.357	76.049	-29.237
66.307	75.983	-29.517
67.272	75.913	-29.747
68.250	75.836	-29.945
69.243	75.752	-30.136
70.250	75.661	-30.342
71.272	75.565	-30.566
72.309	75.473	-30.795
73.360	75.389	-31.018
74.427	75.316	-31.229
75.510	75.250	-31.427
76.608	75.183	-31.613
77.723	75.111	-31.779
78.853	75.034	-31.936
80.000	74.954	-32.107
81.164	74.875	-32.295
82.344	74.799	-32.504
83.542	74.725	-32.719
84.757	74.649	-32.901
85.990	74.569	-33.051
87.241	74.479	-33.177
88.510	74.380	-33.269
89.797	74.277	-33.345
91.103	74.173	-33.421
92.428	74.069	-33.458
93.773	73.969	-33.475
95.137	73.872	-33.572
96.520	73.765	-33.758
97.924	73.658	-33.953
99.349	73.571	-34.105
100.794	73.495	-34.134
102.260	73.391	-33.908
103.747	73.204	-33.294
105.256	72.896	-32.226
106.787	72.500	-30.848
108.340	72.132	-29.599
109.916	71.938	-29.021
111.515	71.983	-29.329
113.137	72.192	-30.177
114.783	72.428	-30.911
116.452	72.590	-31.107
118.146	72.650	-30.904
119.865	72.617	-30.821
121.608	72.511	-31.198
123.377	72.359	-31.874
125.171	72.195	-32.457
126.992	72.040	-32.726
128.839	71.895	-32.725
130.713	71.763	-32.600
132.615	71.659	-32.405
134.543	71.598	-32.053
136.500	71.572	-31.459
138.486	71.555	-30.693
140.500	71.528	-29.936
142.544	71.504	-29.313
144.617	71.513	-28.822
146.721	71.561	-28.419
148.855	71.610	-28.120
151.020	71.621	-27.990
153.217	71.588	-28.043
155.445	71.530	-28.180
157.706	71.470	-28.246
160.000	71.412	-28.190
162.327	71.346	-28.111
164.688	71.264	-28.123
167.084	71.163	-28.210
169.514	71.049	-28.273
171.980	70.936	-28.245
174.481	70.833	-28.129
177.019	70.743	-27.962
179.594	70.670	-27.780
182.206	70.618	-27.597
184.856	70.582	-27.409
187.545	70.555	-27.213
190.273	70.526	-27.011
193.041	70.487	-26.794
195.849	70.431	-26.542
198.697	70.358	-26.247
201.587	70.275	-25.925
204.520	70.196	-25.612
207.494	70.126	-25.324
210.512	70.066	-25.054
213.574	70.009	-24.780
216.681	69.952	-24.485
219.833	69.895	-24.166
223.030	69.839	-23.836
226.274	69.788	-23.517
229.565	69.741	-23.221
232.905	69.697	-22.951
236.292	69.654	-22.696
239.729	69.610	-22.448
243.216	69.565	-22.192
246.754	69.520	-21.916
250.343	69.479	-21.610
253.984	69.444	-21.276
257.678	69.417	-20.934
261.426	69.389	-20.612
265.229	69.352	-20.328
269.087	69.305	-20.055
273.001	69.256	-19.767
276.972	69.212	-19.445
281.000	69.180	-19.091
285.088	69.162	-18.752
289.234	69.144	-18.465
293.441	69.112	-18.218
297.710	69.062	-17.968
302.040	69.002	-17.693
306.433	68.947	-17.412
310.890	68.911	-17.155
315.412	68.899	-16.903
320.000	68.903	-16.593
324.655	68.905	-16.190
329.377	68.890	-15.730
334.168	68.854	-15.274
339.028	68.800	-14.905
343.959	68.736	-14.699
348.962	68.675	-14.641
354.038	68.626	-14.626
359.188	68.594	-14.568
364.412	68.582	-14.442
369.713	68.595	-14.261
375.090	68.634	-14.068
380.546	68.694	-13.901
386.081	68.747	-13.730
391.697	68.743	-13.456
397.395	68.665	-13.033
403.175	68.546	-12.539
409.039	68.434	-12.077
414.989	68.349	-11.680
421.025	68.290	-11.324
427.149	68.251	-10.980
433.362	68.229	-10.616
439.665	68.218	-10.185
446.060	68.204	-9.679
452.548	68.177	-9.199
459.131	68.151	-8.835
465.809	68.155	-8.487
472.584	68.209	-7.979
479.458	68.306	-7.298
486.432	68.400	-6.629
493.507	68.414	-6.202
500.686	68.318	-6.093
507.968	68.163	-6.176
515.357	68.021	-6.247
522.853	67.921	-6.176
530.458	67.853	-5.951
538.174	67.807	-5.629
546.002	67.777	-5.285
553.943	67.763	-4.984
562.001	67.766	-4.777
570.175	67.784	-4.675
578.469	67.800	-4.577
586.883	67.787	-4.279
595.419	67.736	-3.661
604.080	67.669	-2.843
612.866	67.612	-2.036
621.780	67.578	-1.338
630.824	67.563	-0.720
640.000	67.561	-0.112
649.309	67.561	0.527
658.753	67.556	1.180
668.335	67.544	1.797
678.056	67.530	2.350
687.919	67.518	2.863
697.925	67.507	3.373
708.076	67.500	3.905
718.376	67.497	4.460
728.825	67.502	5.032
739.426	67.515	5.613
750.181	67.538	6.197
761.093	67.572	6.779
772.163	67.612	7.375
783.394	67.643	8.022
794.789	67.654	8.738
806.349	67.653	9.487
818.078	67.662	10.186
829.977	67.697	10.761
842.050	67.762	11.185
854.297	67.860	11.509
866.724	67.986	11.868
879.330	68.104	12.405
892.120	68.175	13.076
905.097	68.202	13.724
918.262	68.212	14.364
931.618	68.221	15.142
945.169	68.227	16.158
958.917	68.223	17.380
972.864	68.221	18.572
987.015	68.253	19.333
1001.371	68.335	19.537
1015.937	68.447	19.586
1030.714	68.562	19.828
1045.706	68.669	20.238
1060.916	68.771	20.672
1076.347	68.874	21.058
1092.003	68.981	21.386
1107.887	69.096	21.654
1124.001	69.222	21.857
1140.350	69.354	22.015
1156.937	69.484	22.185
1173.765	69.603	22.418
1190.838	69.708	22.707
1208.159	69.809	22.985
1225.732	69.915	23.187
1243.561	70.028	23.298
1261.649	70.144	23.349
1280.000	70.260	23.372
1298.618	70.378	23.382
1317.507	70.499	23.384
1336.670	70.626	23.383
1356.113	70.765	23.381
1375.838	70.920	23.366
1395.850	71.094	23.311
1416.153	71.285	23.190
1436.751	71.482	22.979
1457.649	71.676	22.682
1478.851	71.864	22.343
1500.362	72.054	22.000
1522.185	72.254	21.636
1544.326	72.464	21.171
1566.789	72.672	20.489
1589.578	72.862	19.520
1612.699	73.013	18.300
1636.156	73.108	16.915
1659.955	73.146	15.420
1684.099	73.142	13.829
1708.595	73.117	12.139
1733.447	73.092	10.360
1758.661	73.080	8.523
1784.241	73.079	6.650
1810.193	73.078	4.729
1836.523	73.061	2.728
1863.236	73.012	0.650
1890.338	72.925	-1.444
1917.833	72.798	-3.474
1945.729	72.636	-5.385
1974.030	72.444	-7.165
2002.743	72.221	-8.811
2031.873	71.964	-10.295
2061.428	71.669	-11.554
2091.412	71.334	-12.520
2121.832	70.967	-13.130
2152.695	70.578	-13.341
2184.007	70.186	-13.139
2215.774	69.810	-12.549
2248.003	69.468	-11.645
2280.701	69.172	-10.542
2313.874	68.925	-9.375
2347.530	68.717	-8.257
2381.676	68.533	-7.256
2416.318	68.350	-6.368
2451.464	68.152	-5.516
2487.122	67.933	-4.588
2523.298	67.694	-3.474
2560.000	67.449	-2.098
2597.236	67.212	-0.438
2635.014	66.997	1.488
2673.341	66.812	3.645
2712.226	66.663	5.983
2751.676	66.549	8.432
2791.700	66.470	10.934
2832.306	66.425	13.463
2873.503	66.412	16.020
2915.299	66.430	18.630
2957.703	66.479	21.317
3000.724	66.565	24.086
3044.370	66.697	26.917
3088.652	66.883	29.781
3133.577	67.134	32.643
3179.156	67.456	35.451
3225.398	67.851	38.138
3272.312	68.315	40.643
3319.909	68.849	42.912
3368.198	69.451	44.884
3417.190	70.123	46.470
3466.894	70.860	47.556
3517.321	71.650	47.999
3568.482	72.471	47.608
3620.387	73.287	46.163
3673.046	74.053	43.482
3726.472	74.717	39.528
3780.675	75.236	34.471
3835.666	75.575	28.688
3891.457	75.723	22.707
3948.060	75.690	17.071
4005.486	75.509	12.189
4063.747	75.224	8.256
4122.855	74.880	5.270
4182.824	74.520	3.092
4243.664	74.176	1.509
4305.390	73.870	0.263
4368.013	73.616	-0.915
4431.547	73.416	-2.258
4496.005	73.248	-3.917
4561.401	73.080	-5.946
4627.749	72.881	-8.309
4695.061	72.624	-10.896
4763.352	72.296	-13.553
4832.637	71.890	-16.109
4902.929	71.405	-18.381
4974.244	70.847	-20.188
5046.596	70.226	-21.374
5120.000	69.559	-21.834
5194.472	68.867	-21.535
5270.027	68.171	-20.527
5346.682	67.487	-18.912
5424.451	66.824	-16.795
5503.352	66.188	-14.240
5583.399	65.589	-11.283
5664.612	65.039	-7.970
5747.006	64.554	-4.371
5830.598	64.142	-0.557
5915.406	63.807	3.416
6001.447	63.554	7.500
6088.740	63.386	11.630
6177.303	63.300	15.721
6267.154	63.292	19.686
6358.312	63.346	23.447
6450.796	63.445	26.958
6544.625	63.567	30.228
6639.818	63.695	33.348
6736.397	63.829	36.460
6834.380	63.980	39.690
6933.789	64.170	43.096
7034.643	64.422	46.667
7136.964	64.758	50.349
7240.773	65.198	54.057
7346.093	65.764	57.668
7452.944	66.468	61.022
7561.350	67.315	63.919
7671.332	68.294	66.092
7782.915	69.372	67.183
7896.120	70.491	66.745
8010.971	71.566	64.331
8127.493	72.497	59.633
8245.711	73.184	52.706
8365.647	73.551	44.160
8487.328	73.558	35.134
8610.779	73.216	26.965
8736.026	72.581	20.725
8863.095	71.749	16.942
8992.011	70.841	15.613
9122.803	69.989	16.388
9255.497	69.324	18.776
9390.121	68.970	22.243
9526.704	69.028	26.173
9665.273	69.523	29.750
9805.857	70.337	31.902
9948.487	71.227	31.562
10093.191	71.947	28.371
10240.000	72.364	23.248
10388.944	72.524	17.835
10540.055	72.601	12.946
10693.363	72.709	7.858
10848.902	72.764	1.533
11006.703	72.598	-5.854
11166.799	72.125	-13.000
11329.224	71.375	-18.606
11494.012	70.463	-22.131
11661.195	69.538	-23.825
11830.812	68.754	-24.419
12002.895	68.214	-24.850
12177.480	67.933	-26.071
12354.606	67.815	-28.861
12534.309	67.702	-33.570
12716.624	67.432	-39.880
12901.592	66.885	-46.783
13089.250	66.001	-52.898
13279.637	64.783	-56.998
13472.794	63.280	-58.413
13668.760	61.579	-57.098
13867.577	59.793	-53.426
14069.285	58.056	-47.928
14273.928	56.513	-41.116
14481.547	55.303	-33.426
14692.186	54.517	-25.236
14905.889	54.185	-16.925
15122.700	54.276	-8.939
15342.664	54.720	-1.844
15565.829	55.422	3.642
15792.239	56.271	6.676
16021.942	57.131	6.435
16254.986	57.835	2.529
16491.422	58.219	-4.386
16731.295	58.172	-12.313
16974.656	57.695	-18.568
17221.559	56.973	-21.199
17472.053	56.422	-20.220
17726.189	56.513	-17.881
17984.021	57.242	-17.786
18245.605	58.101	-23.037
18510.994	58.609	-34.390
18780.242	58.518	-49.761
19053.408	57.750	-65.463
19330.547	56.344	-78.203
19611.715	54.467	-86.479
19896.975	52.617	-90.628
