* Measurement data measured by REW V5.19
* Source: Mic in at front panel (Pink) (Realtek(R) Audio), no input selected, L, volume: no control
* Format: 256k Log Swept Sine, 1 sweep at -12.0 dBFS  With no timing reference
* Dated: Jul 2, 2021 9:24:31 PM
* REW Settings:
*  C-weighting compensation: Off
*  Target level: 75.0 dB
* Note: Tranya T10
* Measurement: Jul 2 21:24:31
* Smoothing: 1/24 octave
* Frequency Step: 1/48 octave
* Start Frequency: 20.3 Hz
*
* Freq(Hz)	SPL(dB)	Phase(degrees)
20.291	81.425	163.677
20.586	81.402	163.408
20.885	81.351	162.922
21.189	81.293	162.477
21.497	81.238	162.082
21.810	81.189	161.695
22.127	81.146	161.283
22.449	81.107	160.828
22.776	81.070	160.323
23.107	81.033	159.769
23.443	80.993	159.182
23.784	80.952	158.589
24.130	80.912	158.016
24.481	80.875	157.470
24.837	80.842	156.941
25.198	80.812	156.407
25.565	80.786	155.853
25.937	80.764	155.285
26.314	80.741	154.724
26.697	80.716	154.186
27.085	80.687	153.669
27.479	80.652	153.160
27.879	80.613	152.659
28.284	80.569	152.183
28.696	80.527	151.751
29.113	80.492	151.342
29.537	80.460	150.904
29.966	80.422	150.405
30.402	80.371	149.892
30.844	80.314	149.460
31.293	80.271	149.146
31.748	80.253	148.841
32.210	80.251	148.359
32.678	80.234	147.631
33.154	80.181	146.816
33.636	80.099	146.189
34.125	80.026	145.851
34.621	79.996	145.618
35.125	80.001	145.180
35.636	79.995	144.431
36.154	79.942	143.576
36.680	79.844	142.944
37.214	79.734	142.695
37.755	79.650	142.738
38.304	79.616	142.834
38.861	79.622	142.723
39.427	79.641	142.254
40.000	79.642	141.457
40.582	79.608	140.536
41.172	79.546	139.738
41.771	79.480	139.135
42.379	79.430	138.624
42.995	79.391	138.116
43.620	79.352	137.641
44.255	79.313	137.234
44.898	79.276	136.844
45.552	79.239	136.422
46.214	79.200	135.991
46.886	79.161	135.556
47.568	79.122	135.066
48.260	79.076	134.499
48.962	79.019	133.880
49.674	78.958	133.239
50.397	78.904	132.632
51.130	78.871	132.080
51.874	78.857	131.480
52.628	78.833	130.791
53.394	78.785	130.182
54.170	78.746	129.713
54.958	78.724	129.225
55.758	78.696	128.705
56.569	78.665	128.241
57.391	78.638	127.702
58.226	78.591	127.030
59.073	78.521	126.421
59.932	78.461	125.889
60.804	78.408	125.279
61.688	78.351	124.642
62.586	78.307	124.033
63.496	78.278	123.347
64.420	78.239	122.599
65.357	78.187	121.916
66.307	78.140	121.272
67.272	78.097	120.569
68.250	78.048	119.828
69.243	77.991	119.033
70.250	77.915	118.218
71.272	77.835	117.370
72.309	77.728	116.485
73.360	77.625	116.034
74.427	77.632	115.629
75.510	77.655	114.579
76.608	77.621	113.474
77.723	77.581	112.290
78.853	77.446	111.204
80.000	77.300	111.149
81.164	77.286	111.239
82.344	77.287	110.748
83.542	77.239	110.093
84.757	77.163	109.427
85.990	77.067	108.793
87.241	76.982	108.175
88.510	76.913	107.333
89.797	76.816	106.281
91.103	76.686	105.422
92.428	76.590	104.855
93.773	76.536	104.183
95.137	76.482	103.468
96.520	76.427	102.851
97.924	76.378	102.344
99.349	76.336	101.654
100.794	76.239	100.671
102.260	76.107	99.789
103.747	76.004	99.005
105.256	75.934	98.246
106.787	75.869	97.536
108.340	75.776	96.872
109.916	75.643	96.153
111.515	75.501	95.283
113.137	75.397	94.294
114.783	75.341	93.528
116.452	75.311	93.591
118.146	75.351	94.682
119.865	75.479	94.941
121.608	75.333	93.063
123.377	74.928	91.308
125.171	74.639	89.984
126.992	74.520	88.787
128.839	74.461	87.869
130.713	74.363	87.257
132.615	74.236	86.787
134.543	74.109	86.164
136.500	73.967	85.598
138.486	73.824	85.170
140.500	73.693	84.531
142.544	73.591	83.555
144.617	73.531	82.398
146.721	73.435	81.693
148.855	73.344	81.891
151.020	73.290	81.738
153.217	73.148	80.806
155.445	72.947	79.991
157.706	72.781	79.394
160.000	72.644	78.977
162.327	72.577	78.610
164.688	72.514	77.821
167.084	72.330	77.304
169.514	72.105	77.246
171.980	71.903	76.915
174.481	71.714	76.208
177.019	71.531	75.607
179.594	71.348	75.067
182.206	71.155	74.665
184.856	71.043	74.338
187.545	70.956	73.835
190.273	70.842	73.779
193.041	70.732	74.100
195.849	70.563	74.513
198.697	70.380	75.134
201.587	70.326	75.394
204.520	70.396	75.313
207.494	70.474	75.003
210.512	70.476	74.390
213.574	70.413	73.733
216.681	70.353	73.138
219.833	70.269	72.090
223.030	70.116	71.029
226.274	70.004	70.292
229.565	69.879	69.850
232.905	69.690	69.792
236.292	69.500	69.691
239.729	69.422	69.159
243.216	69.377	68.440
246.754	69.289	67.981
250.343	69.183	67.629
253.984	69.082	67.290
257.678	68.978	66.931
261.426	68.870	66.608
265.229	68.763	66.322
269.087	68.661	66.017
273.001	68.561	65.705
276.972	68.460	65.439
281.000	68.358	65.175
285.088	68.265	64.879
289.234	68.182	64.620
293.441	68.094	64.379
297.710	68.000	64.106
302.040	67.911	63.807
306.433	67.834	63.511
310.890	67.770	63.240
315.412	67.699	62.993
320.000	67.611	62.804
324.655	67.522	62.636
329.377	67.441	62.457
334.168	67.366	62.274
339.028	67.293	62.090
343.959	67.221	61.908
348.962	67.159	61.738
354.038	67.110	61.548
359.188	67.069	61.342
364.412	67.023	61.146
369.713	66.972	60.946
375.090	66.923	60.719
380.546	66.881	60.478
386.081	66.845	60.232
391.697	66.812	59.980
397.395	66.778	59.714
403.175	66.744	59.437
409.039	66.708	59.151
414.989	66.670	58.846
421.025	66.635	58.533
427.149	66.608	58.215
433.362	66.583	57.882
439.665	66.559	57.544
446.060	66.539	57.230
452.548	66.521	56.904
459.131	66.501	56.551
465.809	66.482	56.195
472.584	66.469	55.815
479.458	66.460	55.409
486.432	66.450	55.015
493.507	66.440	54.637
500.686	66.431	54.258
507.968	66.426	53.858
515.357	66.421	53.442
522.853	66.414	53.014
530.458	66.412	52.582
538.174	66.415	52.140
546.002	66.416	51.667
553.943	66.417	51.179
562.001	66.421	50.708
570.175	66.430	50.228
578.469	66.440	49.720
586.883	66.444	49.195
595.419	66.442	48.680
604.080	66.444	48.172
612.866	66.456	47.650
621.780	66.469	47.130
630.824	66.481	46.612
640.000	66.489	46.074
649.309	66.494	45.523
658.753	66.505	44.986
668.335	66.526	44.457
678.056	66.548	43.917
687.919	66.568	43.369
697.925	66.588	42.830
708.076	66.607	42.282
718.376	66.629	41.718
728.825	66.653	41.170
739.426	66.682	40.644
750.181	66.709	40.117
761.093	66.736	39.578
772.163	66.763	39.034
783.394	66.796	38.503
794.789	66.836	37.978
806.349	66.881	37.452
818.078	66.926	36.928
829.977	66.972	36.408
842.050	67.024	35.868
854.297	67.078	35.313
866.724	67.133	34.765
879.330	67.193	34.220
892.120	67.260	33.654
905.097	67.330	33.060
918.262	67.403	32.461
931.618	67.480	31.859
945.169	67.561	31.230
958.917	67.645	30.561
972.864	67.735	29.865
987.015	67.833	29.161
1001.371	67.934	28.436
1015.937	68.034	27.673
1030.714	68.131	26.878
1045.706	68.229	26.054
1060.916	68.332	25.197
1076.347	68.437	24.318
1092.003	68.543	23.407
1107.887	68.656	22.457
1124.001	68.773	21.482
1140.350	68.884	20.492
1156.937	68.987	19.488
1173.765	69.090	18.466
1190.838	69.192	17.430
1208.159	69.296	16.382
1225.732	69.402	15.331
1243.561	69.509	14.276
1261.649	69.614	13.218
1280.000	69.715	12.156
1298.618	69.813	11.095
1317.507	69.911	10.045
1336.670	70.011	8.997
1356.113	70.116	7.958
1375.838	70.222	6.934
1395.850	70.329	5.909
1416.153	70.442	4.889
1436.751	70.560	3.889
1457.649	70.684	2.907
1478.851	70.819	1.942
1500.362	70.973	0.986
1522.185	71.147	0.031
1544.326	71.340	-0.921
1566.789	71.544	-1.861
1589.578	71.735	-2.784
1612.699	71.871	-3.693
1636.156	71.918	-4.596
1659.955	71.884	-5.499
1684.099	71.819	-6.392
1708.595	71.782	-7.273
1733.447	71.809	-8.153
1758.661	71.912	-9.038
1784.241	72.074	-9.927
1810.193	72.267	-10.817
1836.523	72.470	-11.710
1863.236	72.680	-12.616
1890.338	72.899	-13.539
1917.833	73.127	-14.478
1945.729	73.357	-15.441
1974.030	73.589	-16.428
2002.743	73.824	-17.444
2031.873	74.062	-18.491
2061.428	74.302	-19.579
2091.412	74.543	-20.718
2121.832	74.784	-21.916
2152.695	75.026	-23.175
2184.007	75.272	-24.505
2215.774	75.523	-25.913
2248.003	75.776	-27.406
2280.701	76.028	-28.987
2313.874	76.275	-30.646
2347.530	76.512	-32.363
2381.676	76.744	-34.117
2416.318	76.980	-35.896
2451.464	77.228	-37.738
2487.122	77.488	-39.737
2523.298	77.747	-41.985
2560.000	77.986	-44.517
2597.236	78.191	-47.283
2635.014	78.353	-50.212
2673.341	78.472	-53.237
2712.226	78.544	-56.300
2751.676	78.566	-59.337
2791.700	78.538	-62.293
2832.306	78.467	-65.121
2873.503	78.359	-67.778
2915.299	78.215	-70.235
2957.703	78.034	-72.469
3000.724	77.819	-74.453
3044.370	77.582	-76.170
3088.652	77.335	-77.607
3133.577	77.083	-78.760
3179.156	76.832	-79.628
3225.398	76.585	-80.212
3272.312	76.345	-80.529
3319.909	76.114	-80.600
3368.198	75.890	-80.441
3417.190	75.670	-80.065
3466.894	75.449	-79.490
3517.321	75.222	-78.720
3568.482	74.990	-77.729
3620.387	74.762	-76.461
3673.046	74.551	-74.860
3726.472	74.380	-72.912
3780.675	74.270	-70.687
3835.666	74.234	-68.303
3891.457	74.267	-65.867
3948.060	74.357	-63.448
4005.486	74.486	-61.082
4063.747	74.639	-58.784
4122.855	74.807	-56.555
4182.824	74.986	-54.430
4243.664	75.173	-52.449
4305.390	75.374	-50.664
4368.013	75.594	-49.151
4431.547	75.832	-48.002
4496.005	76.076	-47.291
4561.401	76.307	-47.065
4627.749	76.506	-47.316
4695.061	76.652	-48.007
4763.352	76.731	-49.090
4832.637	76.723	-50.502
4902.929	76.604	-52.110
4974.244	76.355	-53.673
5046.596	75.966	-54.882
5120.000	75.447	-55.438
5194.472	74.821	-55.135
5270.027	74.116	-53.883
5346.682	73.361	-51.684
5424.451	72.574	-48.590
5503.352	71.770	-44.665
5583.399	70.964	-39.991
5664.612	70.174	-34.644
5747.006	69.420	-28.687
5830.598	68.710	-22.182
5915.406	68.049	-15.176
6001.447	67.440	-7.712
6088.740	66.877	0.199
6177.303	66.361	8.521
6267.154	65.895	17.204
6358.312	65.478	26.225
6450.796	65.104	35.564
6544.625	64.771	45.200
6639.818	64.480	55.127
6736.397	64.231	65.341
6834.380	64.021	75.836
6933.789	63.850	86.581
7034.643	63.711	97.541
7136.964	63.595	108.700
7240.773	63.494	120.087
7346.093	63.416	131.748
7452.944	63.368	143.726
7561.350	63.356	156.044
7671.332	63.379	168.704
7782.915	63.435	-178.306
7896.120	63.524	-165.033
8010.971	63.655	-151.547
8127.493	63.841	-137.868
8245.711	64.087	-123.954
8365.647	64.399	-109.781
8487.328	64.789	-95.358
8610.779	65.279	-80.711
8736.026	65.885	-65.909
8863.095	66.624	-51.048
8992.011	67.509	-36.248
9122.803	68.550	-21.671
9255.497	69.764	-7.571
9390.121	71.184	5.639
9526.704	72.828	17.269
9665.273	74.619	26.084
9805.857	76.281	30.258
9948.487	77.358	28.780
10093.191	77.443	24.134
10240.000	76.450	21.947
10388.944	74.679	26.145
10540.055	72.629	36.664
10693.363	70.690	51.625
10848.902	69.000	69.393
11006.703	67.575	88.985
11166.799	66.406	109.864
11329.224	65.456	131.741
11494.012	64.681	154.451
11661.195	64.060	177.877
11830.812	63.584	-158.090
12002.895	63.244	-133.526
12177.480	63.046	-108.425
12354.606	63.012	-82.822
12534.309	63.146	-56.832
12716.624	63.467	-30.581
12901.592	64.026	-4.286
13089.250	64.895	21.600
13279.637	66.137	46.096
13472.794	67.656	67.242
13668.760	69.024	82.154
13867.577	69.592	89.633
14069.285	68.861	94.562
14273.928	66.837	105.314
14481.547	64.027	125.366
14692.186	61.108	152.781
14905.889	58.524	-175.205
15122.700	56.364	-140.293
15342.664	54.530	-103.342
15565.829	52.888	-64.833
15792.239	51.336	-25.107
16021.942	49.863	15.613
16254.986	48.627	57.164
16491.422	47.837	99.362
16731.295	47.514	141.897
16974.656	47.486	-175.487
17221.559	47.681	-133.072
17472.053	48.168	-91.424
17726.189	48.954	-51.700
17984.021	49.897	-15.861
18245.605	50.595	13.268
18510.994	50.534	34.368
18780.242	49.361	49.945
19053.408	47.111	63.049
19330.547	44.463	73.547
19611.715	42.720	80.869
19896.975	42.351	85.768
