* Measurement data measured by REW V5.19
* Source: Mic in at front panel (Pink) (Realtek(R) Audio), no input selected, L, volume: no control
* Format: 256k Log Swept Sine, 1 sweep at -12.0 dBFS  With no timing reference
* Dated: Jun 24, 2021 6:48:23 PM
* REW Settings:
*  C-weighting compensation: Off
*  Target level: 75.0 dB
* Note: TRN V90
* Measurement: Jun 24 18:48:23
* Smoothing: None
* Frequency Step: 1/48 octave
* Start Frequency: 20.3 Hz
*
* Freq(Hz)	SPL(dB)	Phase(degrees)
20.291	75.557	29.769
20.586	75.565	29.091
20.885	75.575	28.529
21.189	75.564	27.979
21.497	75.559	27.407
21.810	75.568	26.795
22.127	75.575	26.145
22.449	75.570	25.471
22.776	75.566	24.790
23.107	75.569	24.114
23.443	75.568	23.435
23.784	75.573	22.739
24.130	75.585	22.015
24.481	75.599	21.272
24.837	75.606	20.529
25.198	75.597	19.810
25.565	75.598	19.120
25.937	75.611	18.446
26.314	75.622	17.767
26.697	75.638	17.080
27.085	75.640	16.401
27.479	75.621	15.759
27.879	75.612	15.168
28.284	75.596	14.617
28.696	75.588	14.078
29.113	75.594	13.528
29.537	75.587	12.965
29.966	75.576	12.393
30.402	75.561	11.811
30.844	75.549	11.213
31.293	75.547	10.610
31.748	75.536	10.028
32.210	75.525	9.473
32.678	75.502	8.904
33.154	75.498	8.268
33.636	75.501	7.567
34.125	75.482	6.881
34.621	75.461	6.285
35.125	75.447	5.767
35.636	75.444	5.251
36.154	75.451	4.700
36.680	75.456	4.155
37.214	75.456	3.646
37.755	75.447	3.124
38.304	75.425	2.543
38.861	75.393	1.946
39.427	75.334	1.406
40.000	75.282	0.902
40.582	75.268	0.345
41.172	75.247	-0.271
41.771	75.208	-0.859
42.379	75.176	-1.388
42.995	75.166	-1.922
43.620	75.158	-2.479
44.255	75.138	-3.008
44.898	75.114	-3.510
45.552	75.086	-4.029
46.214	75.060	-4.538
46.886	75.031	-5.004
47.568	74.998	-5.486
48.260	74.959	-5.993
48.962	74.905	-6.473
49.674	74.848	-6.971
50.397	74.810	-7.506
51.130	74.781	-7.996
51.874	74.763	-8.469
52.628	74.736	-8.971
53.394	74.686	-9.412
54.170	74.655	-9.829
54.958	74.640	-10.305
55.758	74.616	-10.781
56.569	74.588	-11.270
57.391	74.550	-11.749
58.226	74.506	-12.209
59.073	74.457	-12.722
59.932	74.409	-13.144
60.804	74.373	-13.593
61.688	74.315	-14.173
62.586	74.257	-14.572
63.496	74.235	-15.002
64.420	74.193	-15.526
65.357	74.142	-15.922
66.307	74.093	-16.390
67.272	74.044	-16.826
68.250	74.000	-17.282
69.243	73.937	-17.669
70.250	73.890	-18.018
71.272	73.823	-18.504
72.309	73.746	-18.853
73.360	73.690	-19.217
74.427	73.654	-19.525
75.510	73.634	-19.860
76.608	73.592	-20.392
77.723	73.533	-20.903
78.853	73.460	-21.425
80.000	73.400	-21.607
81.164	73.379	-22.419
82.344	73.237	-22.725
83.542	73.246	-22.937
84.757	73.185	-23.612
85.990	73.131	-24.008
87.241	73.043	-24.378
88.510	72.967	-24.787
89.797	72.853	-25.007
91.103	72.789	-25.414
92.428	72.685	-25.818
93.773	72.620	-25.988
95.137	72.576	-26.334
96.520	72.525	-26.666
97.924	72.463	-26.970
99.349	72.358	-27.392
100.794	72.251	-27.504
102.260	72.170	-27.964
103.747	72.073	-28.174
105.256	72.036	-28.203
106.787	72.006	-28.264
108.340	71.947	-28.636
109.916	71.872	-28.870
111.515	71.783	-29.589
113.137	71.706	-30.229
114.783	71.633	-30.836
116.452	71.440	-31.048
118.146	71.345	-31.023
119.865	71.320	-28.016
121.608	71.196	-31.132
123.377	71.189	-30.592
125.171	71.044	-31.080
126.992	70.977	-30.925
128.839	70.888	-30.451
130.713	70.710	-30.186
132.615	70.556	-30.244
134.543	70.452	-31.446
136.500	70.425	-31.354
138.486	70.368	-30.633
140.500	70.229	-30.788
142.544	70.119	-30.832
144.617	70.029	-31.168
146.721	70.055	-31.063
148.855	70.002	-31.002
151.020	69.801	-30.192
153.217	69.651	-32.553
155.445	69.895	-29.763
157.706	69.884	-29.292
160.000	69.793	-24.937
162.327	69.698	-29.224
164.688	69.725	-30.784
167.084	69.811	-31.101
169.514	69.622	-30.810
171.980	69.435	-30.695
174.481	69.284	-31.717
177.019	69.188	-31.642
179.594	69.027	-31.683
182.206	68.927	-31.804
184.856	68.874	-32.075
187.545	68.856	-31.861
190.273	68.754	-32.245
193.041	68.640	-32.008
195.849	68.622	-31.999
198.697	68.512	-31.960
201.587	68.381	-31.902
204.520	68.292	-31.686
207.494	68.234	-31.508
210.512	68.117	-31.466
213.574	68.018	-31.480
216.681	67.916	-31.424
219.833	67.773	-31.118
223.030	67.686	-30.909
226.274	67.623	-30.728
229.565	67.503	-30.481
232.905	67.451	-30.427
236.292	67.377	-30.226
239.729	67.282	-29.989
243.216	67.183	-29.916
246.754	67.086	-29.848
250.343	66.958	-29.506
253.984	66.850	-29.187
257.678	66.762	-28.617
261.426	66.718	-28.266
265.229	66.638	-28.174
269.087	66.536	-28.053
273.001	66.439	-27.589
276.972	66.359	-27.134
281.000	66.253	-26.764
285.088	66.180	-26.308
289.234	66.148	-25.757
293.441	66.100	-25.774
297.710	66.000	-25.666
302.040	65.900	-25.295
306.433	65.823	-24.995
310.890	65.754	-24.500
315.412	65.676	-24.165
320.000	65.553	-23.887
324.655	65.470	-23.312
329.377	65.404	-22.779
334.168	65.313	-22.281
339.028	65.244	-21.777
343.959	65.158	-21.427
348.962	65.067	-20.838
354.038	65.014	-20.384
359.188	64.952	-19.770
364.412	64.877	-19.298
369.713	64.793	-18.694
375.090	64.711	-18.083
380.546	64.645	-17.451
386.081	64.590	-16.809
391.697	64.551	-16.171
397.395	64.495	-15.517
403.175	64.437	-14.844
409.039	64.398	-14.246
414.989	64.330	-13.818
421.025	64.255	-13.163
427.149	64.191	-12.557
433.362	64.168	-11.626
439.665	64.129	-11.146
446.060	64.078	-10.336
452.548	64.056	-9.608
459.131	64.076	-9.197
465.809	63.987	-8.772
472.584	63.932	-8.078
479.458	63.879	-7.272
486.432	63.879	-6.553
493.507	63.790	-6.272
500.686	63.735	-5.173
507.968	63.724	-4.331
515.357	63.699	-3.690
522.853	63.667	-2.977
530.458	63.590	-2.315
538.174	63.594	-1.217
546.002	63.559	-0.643
553.943	63.546	0.344
562.001	63.537	1.186
570.175	63.523	1.922
578.469	63.499	2.676
586.883	63.513	3.594
595.419	63.441	4.340
604.080	63.447	5.318
612.866	63.456	6.280
621.780	63.478	6.985
630.824	63.393	7.808
640.000	63.474	9.042
649.309	63.447	9.872
658.753	63.440	10.954
668.335	63.564	12.108
678.056	63.588	12.642
687.919	63.612	13.528
697.925	63.610	14.031
708.076	63.577	15.070
718.376	63.610	16.221
728.825	63.652	17.492
739.426	63.747	18.409
750.181	63.790	19.172
761.093	63.822	20.022
772.163	63.856	20.924
783.394	63.917	22.069
794.789	63.967	22.878
806.349	64.014	24.045
818.078	64.100	25.107
829.977	64.196	26.477
842.050	64.329	26.768
854.297	64.382	27.668
866.724	64.511	28.189
879.330	64.525	29.409
892.120	64.645	30.343
905.097	64.716	30.905
918.262	64.839	31.991
931.618	64.915	32.991
945.169	65.061	33.817
958.917	65.162	34.741
972.864	65.265	35.357
987.015	65.403	36.283
1001.371	65.562	36.738
1015.937	65.675	37.864
1030.714	65.777	38.497
1045.706	65.990	39.663
1060.916	66.148	40.102
1076.347	66.304	40.384
1092.003	66.467	41.046
1107.887	66.617	41.441
1124.001	66.796	41.882
1140.350	66.956	42.313
1156.937	67.093	42.838
1173.765	67.262	43.056
1190.838	67.401	43.664
1208.159	67.627	44.610
1225.732	67.811	44.288
1243.561	68.017	44.269
1261.649	68.153	44.784
1280.000	68.310	44.629
1298.618	68.457	45.025
1317.507	68.628	45.483
1336.670	68.798	45.735
1356.113	68.955	45.764
1375.838	69.166	45.840
1395.850	69.281	46.157
1416.153	69.422	47.161
1436.751	69.688	47.253
1457.649	69.913	47.211
1478.851	70.158	47.417
1500.362	70.410	47.467
1522.185	70.680	47.492
1544.326	70.985	47.536
1566.789	71.260	47.548
1589.578	71.639	47.962
1612.699	71.941	48.049
1636.156	72.085	47.404
1659.955	72.112	46.922
1684.099	72.110	46.641
1708.595	72.167	46.342
1733.447	72.292	45.666
1758.661	72.463	44.869
1784.241	72.702	44.125
1810.193	73.030	44.159
1836.523	73.340	43.265
1863.236	73.654	42.327
1890.338	73.956	41.169
1917.833	74.248	39.974
1945.729	74.480	38.433
1974.030	74.791	37.475
2002.743	75.050	35.676
2031.873	75.303	33.724
2061.428	75.479	31.879
2091.412	75.700	29.903
2121.832	75.813	27.815
2152.695	75.889	25.135
2184.007	75.879	23.366
2215.774	75.938	21.372
2248.003	75.965	19.245
2280.701	75.927	17.086
2313.874	75.868	15.030
2347.530	75.753	13.788
2381.676	75.652	12.106
2416.318	75.552	10.863
2451.464	75.423	9.474
2487.122	75.251	8.560
2523.298	75.147	7.798
2560.000	74.945	7.430
2597.236	74.890	7.386
2635.014	74.846	6.991
2673.341	74.797	6.567
2712.226	74.641	6.078
2751.676	74.602	6.104
2791.700	74.540	6.316
2832.306	74.498	6.160
2873.503	74.493	6.637
2915.299	74.499	5.820
2957.703	74.502	6.353
3000.724	74.504	6.700
3044.370	74.546	6.995
3088.652	74.592	6.937
3133.577	74.723	7.471
3179.156	74.943	7.825
3225.398	75.177	7.678
3272.312	75.472	7.230
3319.909	75.681	5.923
3368.198	75.920	4.792
3417.190	76.146	3.438
3466.894	76.341	1.372
3517.321	76.480	-0.366
3568.482	76.621	-2.308
3620.387	76.722	-4.641
3673.046	76.907	-7.532
3726.472	76.921	-10.685
3780.675	76.922	-14.046
3835.666	76.891	-18.086
3891.457	76.691	-22.065
3948.060	76.377	-25.605
4005.486	75.978	-28.838
4063.747	75.506	-32.536
4122.855	74.783	-34.839
4182.824	74.000	-35.940
4243.664	73.150	-36.705
4305.390	72.238	-35.496
4368.013	71.386	-33.584
4431.547	70.678	-29.557
4496.005	70.072	-25.414
4561.401	69.684	-19.855
4627.749	69.673	-14.694
4695.061	69.838	-10.130
4763.352	70.222	-6.549
4832.637	70.791	-4.459
4902.929	71.295	-4.771
4974.244	71.691	-6.143
5046.596	71.882	-8.939
5120.000	71.886	-11.440
5194.472	71.638	-12.883
5270.027	71.331	-14.224
5346.682	70.959	-14.478
5424.451	70.592	-14.685
5503.352	70.150	-14.221
5583.399	69.668	-12.536
5664.612	69.283	-10.945
5747.006	68.901	-8.703
5830.598	68.584	-6.431
5915.406	68.270	-4.283
6001.447	68.068	-1.339
6088.740	67.814	1.671
6177.303	67.710	4.808
6267.154	67.657	8.131
6358.312	67.549	11.538
6450.796	67.543	14.906
6544.625	67.610	19.036
6639.818	67.752	22.729
6736.397	67.876	26.352
6834.380	68.093	29.939
6933.789	68.383	34.003
7034.643	68.794	37.699
7136.964	69.185	41.562
7240.773	69.648	45.014
7346.093	70.225	48.802
7452.944	70.973	51.915
7561.350	71.824	55.120
7671.332	72.701	57.436
7782.915	73.896	59.336
7896.120	75.152	59.605
8010.971	76.686	57.594
8127.493	78.288	53.200
8245.711	80.054	42.924
8365.647	81.130	26.276
8487.328	80.736	7.238
8610.779	79.272	-5.932
8736.026	77.547	-13.031
8863.095	75.942	-16.198
8992.011	74.580	-15.692
9122.803	73.509	-13.652
9255.497	72.674	-11.459
9390.121	71.979	-7.847
9526.704	71.519	-3.708
9665.273	71.179	-0.127
9805.857	71.069	3.947
9948.487	71.121	8.543
10093.191	71.397	11.822
10240.000	71.837	14.747
10388.944	72.589	16.848
10540.055	73.348	16.773
10693.363	74.281	14.672
10848.902	75.212	9.161
11006.703	75.902	-0.338
11166.799	76.134	-12.273
11329.224	75.402	-25.512
11494.012	73.857	-34.934
11661.195	72.232	-40.799
11830.812	70.579	-44.008
12002.895	69.027	-44.457
12177.480	67.358	-44.426
12354.606	65.959	-39.034
12534.309	65.216	-34.781
12716.624	64.525	-30.988
12901.592	64.028	-28.623
13089.250	63.435	-26.848
13279.637	63.014	-26.273
13472.794	62.324	-27.371
13668.760	61.297	-29.239
13867.577	59.607	-31.308
14069.285	57.322	-29.704
14273.928	54.963	-21.114
14481.547	53.382	-4.411
14692.186	53.510	13.703
14905.889	54.957	28.660
15122.700	57.283	33.540
15342.664	59.119	25.485
15565.829	58.756	12.831
15792.239	56.929	7.198
16021.942	54.861	7.808
16254.986	53.348	12.749
16491.422	52.490	18.066
16731.295	52.484	22.939
16974.656	52.504	27.459
17221.559	52.875	30.614
17472.053	53.782	31.756
17726.189	55.045	25.203
17984.021	55.816	6.944
18245.605	53.603	-19.255
18510.994	47.901	-34.034
18780.242	42.972	22.303
19053.408	44.940	3.040
19330.547	43.823	21.880
19611.715	42.823	11.391
19896.975	40.586	17.261
