* Measurement data measured by REW V5.19
* Source: Mic in at front panel (Pink) (Realtek(R) Audio), no input selected, L, volume: no control
* Format: 256k Log Swept Sine, 1 sweep at -12.0 dBFS  With no timing reference
* Dated: Jun 27, 2021 3:22:40 PM
* REW Settings:
*  C-weighting compensation: Off
*  Target level: 75.0 dB
* Note: Urbanfun Hybrid
* Measurement: Jun 27 15:22:40
* Smoothing: None
* Frequency Step: 1/48 octave
* Start Frequency: 20.3 Hz
*
* Freq(Hz)	SPL(dB)	Phase(degrees)
20.291	74.256	-130.373
20.586	74.316	-131.072
20.885	74.380	-131.698
21.189	74.421	-132.352
21.497	74.461	-133.048
21.810	74.510	-133.778
22.127	74.552	-134.521
22.449	74.582	-135.255
22.776	74.614	-135.972
23.107	74.657	-136.681
23.443	74.699	-137.406
23.784	74.746	-138.171
24.130	74.797	-138.974
24.481	74.849	-139.795
24.837	74.892	-140.606
25.198	74.921	-141.389
25.565	74.961	-142.154
25.937	75.012	-142.925
26.314	75.060	-143.717
26.697	75.109	-144.524
27.085	75.140	-145.311
27.479	75.150	-146.040
27.879	75.172	-146.698
28.284	75.191	-147.313
28.696	75.222	-147.938
29.113	75.268	-148.614
29.537	75.296	-149.341
29.966	75.313	-150.080
30.402	75.320	-150.790
30.844	75.332	-151.465
31.293	75.361	-152.135
31.748	75.388	-152.831
32.210	75.408	-153.554
32.678	75.407	-154.281
33.154	75.424	-155.010
33.636	75.456	-155.764
34.125	75.478	-156.551
34.621	75.497	-157.331
35.125	75.513	-158.051
35.636	75.539	-158.731
36.154	75.580	-159.450
36.680	75.618	-160.235
37.214	75.632	-160.995
37.755	75.625	-161.630
38.304	75.619	-162.172
38.861	75.628	-162.749
39.427	75.616	-163.413
40.000	75.594	-164.110
40.582	75.599	-164.799
41.172	75.600	-165.487
41.771	75.590	-166.169
42.379	75.584	-166.831
42.995	75.598	-167.510
43.620	75.612	-168.222
44.255	75.611	-168.907
44.898	75.605	-169.535
45.552	75.603	-170.173
46.214	75.604	-170.832
46.886	75.598	-171.447
47.568	75.590	-172.046
48.260	75.578	-172.700
48.962	75.537	-173.311
49.674	75.496	-173.791
50.397	75.505	-174.327
51.130	75.524	-175.103
51.874	75.505	-175.907
52.628	75.466	-176.456
53.394	75.440	-176.889
54.170	75.437	-177.450
54.958	75.441	-178.055
55.758	75.446	-178.647
56.569	75.449	-179.317
57.391	75.437	179.992
58.226	75.406	179.335
59.073	75.371	178.741
59.932	75.354	178.175
60.804	75.327	177.483
61.688	75.271	176.835
62.586	75.236	176.320
63.496	75.223	175.758
64.420	75.210	175.180
65.357	75.186	174.546
66.307	75.141	173.969
67.272	75.119	173.514
68.250	75.109	172.965
69.243	75.075	172.360
70.250	75.025	171.807
71.272	74.971	171.288
72.309	74.922	170.709
73.360	74.875	170.079
74.427	74.861	169.598
75.510	74.868	168.925
76.608	74.814	168.279
77.723	74.790	167.890
78.853	74.758	167.343
80.000	74.718	166.947
81.164	74.665	166.400
82.344	74.621	166.125
83.542	74.617	165.310
84.757	74.540	164.428
85.990	74.469	163.831
87.241	74.401	163.284
88.510	74.343	162.732
89.797	74.267	162.328
91.103	74.202	161.794
92.428	74.149	161.555
93.773	74.086	160.987
95.137	74.061	160.793
96.520	73.995	160.096
97.924	73.952	159.731
99.349	73.875	159.291
100.794	73.789	158.587
102.260	73.752	158.292
103.747	73.620	157.543
105.256	73.614	157.674
106.787	73.577	157.219
108.340	73.514	156.760
109.916	73.454	156.376
111.515	73.378	155.961
113.137	73.291	155.545
114.783	73.226	154.703
116.452	73.145	154.263
118.146	73.041	154.148
119.865	72.957	151.346
121.608	72.835	153.778
123.377	72.809	152.744
125.171	72.793	152.975
126.992	72.740	152.802
128.839	72.661	152.477
130.713	72.547	152.145
132.615	72.414	151.732
134.543	72.417	151.542
136.500	72.363	150.591
138.486	72.235	150.843
140.500	72.182	150.492
142.544	72.077	150.071
144.617	72.032	150.087
146.721	71.929	149.488
148.855	71.847	149.067
151.020	71.792	149.059
153.217	71.612	148.582
155.445	71.540	148.378
157.706	71.547	148.012
160.000	71.743	146.917
162.327	71.325	148.064
164.688	71.293	147.811
167.084	71.224	147.824
169.514	71.052	147.247
171.980	70.897	147.006
174.481	70.731	147.113
177.019	70.574	146.832
179.594	70.439	146.873
182.206	70.296	146.846
184.856	70.250	146.292
187.545	70.274	146.889
190.273	70.220	147.148
193.041	69.950	147.283
195.849	69.637	147.593
198.697	69.600	148.539
201.587	69.557	150.149
204.520	69.595	152.397
207.494	69.896	152.925
210.512	70.038	151.299
213.574	70.124	150.154
216.681	70.085	149.146
219.833	69.970	148.272
223.030	69.868	148.111
226.274	69.748	147.447
229.565	69.734	147.378
232.905	69.569	146.970
236.292	69.491	146.862
239.729	69.376	146.666
243.216	69.274	146.409
246.754	69.221	146.509
250.343	69.044	146.280
253.984	68.911	146.263
257.678	68.820	146.622
261.426	68.773	146.621
265.229	68.682	146.521
269.087	68.582	146.372
273.001	68.455	146.515
276.972	68.369	146.649
281.000	68.259	146.755
285.088	68.176	146.924
289.234	68.131	147.232
293.441	68.076	146.987
297.710	67.964	146.854
302.040	67.854	146.926
306.433	67.773	147.054
310.890	67.691	147.230
315.412	67.602	147.306
320.000	67.473	147.295
324.655	67.379	147.641
329.377	67.254	147.960
334.168	67.192	148.044
339.028	67.120	148.334
343.959	67.021	148.431
348.962	66.916	148.695
354.038	66.841	148.929
359.188	66.764	149.130
364.412	66.672	149.388
369.713	66.572	149.658
375.090	66.472	149.921
380.546	66.390	150.209
386.081	66.303	150.530
391.697	66.219	150.865
397.395	66.136	151.181
403.175	66.041	151.544
409.039	65.964	151.934
414.989	65.868	152.192
421.025	65.771	152.525
427.149	65.675	152.935
433.362	65.619	153.559
439.665	65.546	153.886
446.060	65.460	154.340
452.548	65.396	154.891
459.131	65.390	155.034
465.809	65.259	155.182
472.584	65.169	155.638
479.458	65.076	156.151
486.432	65.031	156.656
493.507	64.896	156.700
500.686	64.802	157.561
507.968	64.746	158.148
515.357	64.677	158.589
522.853	64.604	159.055
530.458	64.472	159.547
538.174	64.432	160.403
546.002	64.345	160.796
553.943	64.275	161.588
562.001	64.218	162.262
570.175	64.154	162.792
578.469	64.071	163.409
586.883	64.029	164.130
595.419	63.902	164.718
604.080	63.848	165.605
612.866	63.805	166.388
621.780	63.763	166.971
630.824	63.619	167.702
640.000	63.640	168.823
649.309	63.553	169.566
658.753	63.482	170.570
668.335	63.545	171.612
678.056	63.511	172.117
687.919	63.469	172.970
697.925	63.413	173.561
708.076	63.359	174.521
718.376	63.344	175.427
728.825	63.309	176.298
739.426	63.280	177.231
750.181	63.255	178.153
761.093	63.228	179.141
772.163	63.204	-179.868
783.394	63.201	-178.757
794.789	63.195	-177.878
806.349	63.172	-176.675
818.078	63.207	-175.601
829.977	63.241	-174.156
842.050	63.310	-173.769
854.297	63.310	-172.837
866.724	63.375	-172.240
879.330	63.334	-171.023
892.120	63.399	-170.079
905.097	63.401	-169.455
918.262	63.463	-168.393
931.618	63.469	-167.412
945.169	63.535	-166.589
958.917	63.546	-165.660
972.864	63.538	-164.898
987.015	63.585	-163.719
1001.371	63.655	-162.956
1015.937	63.693	-161.442
1030.714	63.730	-160.388
1045.706	63.894	-158.876
1060.916	63.999	-158.137
1076.347	64.115	-157.579
1092.003	64.227	-156.713
1107.887	64.332	-156.089
1124.001	64.467	-155.516
1140.350	64.576	-154.909
1156.937	64.654	-154.237
1173.765	64.761	-153.889
1190.838	64.831	-153.194
1208.159	64.981	-152.148
1225.732	65.080	-152.345
1243.561	65.190	-152.176
1261.649	65.217	-151.467
1280.000	65.260	-151.358
1298.618	65.291	-150.593
1317.507	65.346	-149.672
1336.670	65.396	-148.852
1356.113	65.437	-148.141
1375.838	65.549	-147.322
1395.850	65.570	-146.221
1416.153	65.636	-144.396
1436.751	65.833	-143.456
1457.649	65.997	-142.675
1478.851	66.183	-141.641
1500.362	66.385	-140.743
1522.185	66.610	-139.858
1544.326	66.874	-138.987
1566.789	67.114	-138.171
1589.578	67.463	-136.964
1612.699	67.728	-136.105
1636.156	67.837	-135.981
1659.955	67.828	-135.670
1684.099	67.778	-135.181
1708.595	67.788	-134.646
1733.447	67.866	-134.420
1758.661	67.985	-134.295
1784.241	68.173	-134.059
1810.193	68.449	-132.941
1836.523	68.708	-132.671
1863.236	68.977	-132.353
1890.338	69.240	-132.171
1917.833	69.504	-131.921
1945.729	69.721	-131.902
1974.030	70.029	-131.190
2002.743	70.307	-131.238
2031.873	70.600	-131.338
2061.428	70.843	-131.272
2091.412	71.163	-131.273
2121.832	71.404	-131.401
2152.695	71.646	-132.120
2184.007	71.834	-131.985
2215.774	72.126	-132.144
2248.003	72.425	-132.573
2280.701	72.691	-133.207
2313.874	72.962	-133.946
2347.530	73.203	-134.098
2381.676	73.479	-134.964
2416.318	73.772	-135.687
2451.464	74.041	-136.902
2487.122	74.261	-138.001
2523.298	74.522	-139.294
2560.000	74.640	-140.402
2597.236	74.867	-141.132
2635.014	75.109	-142.117
2673.341	75.382	-143.257
2712.226	75.564	-144.868
2751.676	75.835	-146.439
2791.700	76.023	-148.147
2832.306	76.170	-150.364
2873.503	76.300	-151.946
2915.299	76.395	-154.732
2957.703	76.451	-156.149
3000.724	76.478	-157.692
3044.370	76.513	-159.262
3088.652	76.510	-161.123
3133.577	76.548	-162.289
3179.156	76.636	-163.417
3225.398	76.706	-164.712
3272.312	76.824	-165.945
3319.909	76.867	-167.721
3368.198	76.955	-169.065
3417.190	77.057	-170.474
3466.894	77.138	-172.468
3517.321	77.178	-174.011
3568.482	77.234	-175.531
3620.387	77.292	-177.266
3673.046	77.496	-179.532
3726.472	77.585	177.557
3780.675	77.632	173.727
3835.666	77.447	168.969
3891.457	76.869	166.184
3948.060	76.436	167.020
4005.486	76.497	168.125
4063.747	76.802	166.570
4122.855	76.933	164.108
4182.824	76.956	160.982
4243.664	76.814	156.806
4305.390	76.498	153.412
4368.013	76.111	149.672
4431.547	75.685	146.971
4496.005	75.125	143.556
4561.401	74.475	141.172
4627.749	73.863	138.747
4695.061	73.109	136.915
4763.352	72.346	136.024
4832.637	71.673	136.010
4902.929	70.978	135.912
4974.244	70.344	136.556
5046.596	69.737	136.925
5120.000	69.160	137.960
5194.472	68.534	139.943
5270.027	67.972	141.645
5346.682	67.437	144.037
5424.451	66.955	146.008
5503.352	66.418	148.298
5583.399	65.858	151.515
5664.612	65.396	154.430
5747.006	64.936	157.789
5830.598	64.549	161.021
5915.406	64.157	163.996
6001.447	63.878	167.709
6088.740	63.543	171.355
6177.303	63.359	175.099
6267.154	63.218	178.868
6358.312	63.007	-177.329
6450.796	62.896	-173.555
6544.625	62.851	-169.179
6639.818	62.877	-165.160
6736.397	62.862	-161.275
6834.380	62.941	-157.377
6933.789	63.073	-153.091
7034.643	63.320	-149.181
7136.964	63.544	-145.152
7240.773	63.808	-141.475
7346.093	64.168	-137.732
7452.944	64.661	-134.601
7561.350	65.206	-131.446
7671.332	65.716	-129.055
7782.915	66.441	-126.990
7896.120	67.102	-126.216
8010.971	67.868	-126.820
8127.493	68.507	-127.915
8245.711	69.255	-131.166
8365.647	69.792	-135.935
8487.328	69.955	-142.010
8610.779	69.834	-147.136
8736.026	69.456	-151.439
8863.095	68.903	-154.720
8992.011	68.304	-155.337
9122.803	67.802	-154.649
9255.497	67.407	-153.666
9390.121	67.097	-150.945
9526.704	67.032	-147.639
9665.273	67.096	-144.999
9805.857	67.408	-141.917
9948.487	67.935	-138.643
10093.191	68.768	-137.191
10240.000	69.884	-137.176
10388.944	71.418	-140.153
10540.055	72.901	-149.463
10693.363	73.814	-166.129
10848.902	73.112	173.973
11006.703	71.078	159.727
11166.799	68.936	154.022
11329.224	66.998	151.753
11494.012	65.182	152.814
11661.195	63.792	155.019
11830.812	62.591	158.035
12002.895	61.603	162.145
12177.480	60.787	166.226
12354.606	60.183	170.905
12534.309	59.782	175.108
12716.624	59.453	-179.731
12901.592	59.410	-175.312
13089.250	59.393	-171.026
13279.637	59.768	-166.840
13472.794	60.281	-163.825
13668.760	61.067	-161.354
13867.577	62.035	-161.022
14069.285	63.468	-163.617
14273.928	65.411	-172.633
14481.547	67.033	169.094
14692.186	67.028	143.318
14905.889	65.290	125.075
15122.700	63.332	114.674
15342.664	61.786	109.812
15565.829	60.584	106.099
15792.239	59.489	101.962
16021.942	58.352	95.469
16254.986	57.270	87.409
16491.422	55.876	77.679
16731.295	54.449	70.200
16974.656	52.637	67.069
17221.559	50.922	66.723
17472.053	49.591	69.391
17726.189	48.554	73.341
17984.021	47.954	79.112
18245.605	47.788	85.133
18510.994	48.193	88.711
18780.242	48.750	89.919
19053.408	49.611	84.984
19330.547	49.592	71.766
19611.715	47.918	57.985
19896.975	45.270	49.998
