* Measurement data measured by REW V5.19
* Source: Mic in at front panel (Pink) (Realtek(R) Audio), no input selected, L, volume: no control
* Format: 256k Log Swept Sine, 1 sweep at -12.0 dBFS  With no timing reference
* Dated: Jun 26, 2021 11:27:18 AM
* REW Settings:
*  C-weighting compensation: Off
*  Target level: 75.0 dB
* Note: Yinyoo V2
* Measurement: Jun 26 11:27:18
* Smoothing: None
* Frequency Step: 1/48 octave
* Start Frequency: 20.3 Hz
*
* Freq(Hz)	SPL(dB)	Phase(degrees)
20.291	73.536	-113.960
20.586	73.614	-114.593
20.885	73.694	-115.126
21.189	73.751	-115.649
21.497	73.813	-116.187
21.810	73.890	-116.752
22.127	73.966	-117.346
22.449	74.033	-117.967
22.776	74.104	-118.611
23.107	74.182	-119.279
23.443	74.254	-119.978
23.784	74.328	-120.706
24.130	74.404	-121.458
24.481	74.482	-122.216
24.837	74.552	-122.962
25.198	74.608	-123.688
25.565	74.673	-124.394
25.937	74.750	-125.089
26.314	74.823	-125.778
26.697	74.903	-126.459
27.085	74.973	-127.127
27.479	75.027	-127.776
27.879	75.094	-128.411
28.284	75.151	-129.039
28.696	75.214	-129.668
29.113	75.286	-130.300
29.537	75.345	-130.932
29.966	75.401	-131.564
30.402	75.452	-132.198
30.844	75.508	-132.840
31.293	75.577	-133.494
31.748	75.640	-134.165
32.210	75.698	-134.859
32.678	75.731	-135.577
33.154	75.776	-136.303
33.636	75.831	-137.013
34.125	75.877	-137.693
34.621	75.931	-138.359
35.125	75.987	-139.036
35.636	76.042	-139.722
36.154	76.103	-140.391
36.680	76.168	-141.028
37.214	76.232	-141.656
37.755	76.280	-142.301
38.304	76.314	-142.951
38.861	76.348	-143.583
39.427	76.364	-144.212
40.000	76.379	-144.872
40.582	76.420	-145.555
41.172	76.455	-146.211
41.771	76.485	-146.841
42.379	76.524	-147.503
42.995	76.571	-148.205
43.620	76.613	-148.874
44.255	76.650	-149.474
44.898	76.688	-150.076
45.552	76.723	-150.736
46.214	76.757	-151.408
46.886	76.784	-152.038
47.568	76.805	-152.642
48.260	76.827	-153.261
48.962	76.834	-153.891
49.674	76.832	-154.521
50.397	76.852	-155.150
51.130	76.886	-155.773
51.874	76.923	-156.383
52.628	76.954	-156.996
53.394	76.963	-157.617
54.170	76.977	-158.221
54.958	77.007	-158.802
55.758	77.035	-159.377
56.569	77.064	-159.952
57.391	77.096	-160.568
58.226	77.113	-161.256
59.073	77.120	-161.932
59.932	77.134	-162.549
60.804	77.145	-163.168
61.688	77.149	-163.799
62.586	77.160	-164.423
63.496	77.179	-165.043
64.420	77.192	-165.644
65.357	77.197	-166.239
66.307	77.196	-166.863
67.272	77.202	-167.468
68.250	77.214	-168.085
69.243	77.213	-168.668
70.250	77.218	-169.213
71.272	77.205	-169.833
72.309	77.188	-170.263
73.360	77.213	-170.813
74.427	77.226	-171.491
75.510	77.234	-172.039
76.608	77.225	-172.677
77.723	77.218	-173.227
78.853	77.221	-173.922
80.000	77.199	-174.501
81.164	77.212	-175.104
82.344	77.202	-175.787
83.542	77.208	-176.477
84.757	77.190	-177.254
85.990	77.168	-177.838
87.241	77.133	-178.439
88.510	77.116	-179.018
89.797	77.065	-179.630
91.103	77.052	179.818
92.428	77.015	179.224
93.773	76.997	178.878
95.137	77.002	178.403
96.520	76.971	177.838
97.924	76.943	177.302
99.349	76.897	176.752
100.794	76.842	176.048
102.260	76.813	175.740
103.747	76.806	175.214
105.256	76.791	174.926
106.787	76.756	174.412
108.340	76.713	173.731
109.916	76.667	173.122
111.515	76.659	172.609
113.137	76.641	172.329
114.783	76.540	171.957
116.452	76.475	171.021
118.146	76.452	170.754
119.865	75.477	167.871
121.608	76.326	170.579
123.377	76.236	169.506
125.171	76.307	168.900
126.992	76.273	168.416
128.839	76.120	168.277
130.713	76.060	167.464
132.615	75.934	167.178
134.543	76.008	166.816
136.500	75.859	166.846
138.486	75.719	166.549
140.500	75.641	165.665
142.544	75.503	166.021
144.617	75.270	165.945
146.721	75.098	170.128
148.855	74.851	167.373
151.020	75.340	170.224
153.217	75.623	171.489
155.445	75.343	169.761
157.706	77.248	-178.564
160.000	76.112	170.507
162.327	75.971	165.252
164.688	76.417	163.363
167.084	76.219	164.190
169.514	75.888	163.298
171.980	75.845	161.871
174.481	75.782	161.645
177.019	75.617	161.371
179.594	75.447	160.707
182.206	75.382	160.058
184.856	75.380	159.766
187.545	75.325	159.377
190.273	75.277	158.812
193.041	75.258	158.477
195.849	75.195	158.298
198.697	75.113	158.016
201.587	75.044	157.650
204.520	74.976	157.605
207.494	74.946	157.398
210.512	74.884	157.039
213.574	74.810	156.626
216.681	74.742	156.252
219.833	74.636	156.048
223.030	74.570	155.808
226.274	74.520	155.534
229.565	74.457	155.194
232.905	74.379	154.902
236.292	74.313	154.667
239.729	74.237	154.408
243.216	74.169	154.065
246.754	74.073	153.783
250.343	73.971	153.593
253.984	73.872	153.435
257.678	73.800	153.661
261.426	73.773	153.470
265.229	73.699	153.170
269.087	73.608	152.934
273.001	73.507	152.870
276.972	73.436	152.831
281.000	73.344	152.791
285.088	73.275	152.822
289.234	73.255	152.938
293.441	73.222	152.499
297.710	73.125	152.173
302.040	73.036	152.038
306.433	72.965	151.946
310.890	72.901	151.893
315.412	72.823	151.766
320.000	72.704	151.563
324.655	72.623	151.650
329.377	72.549	151.673
334.168	72.467	151.719
339.028	72.393	151.753
343.959	72.301	151.644
348.962	72.204	151.674
354.038	72.142	151.723
359.188	72.074	151.778
364.412	71.987	151.833
369.713	71.894	151.898
375.090	71.806	151.982
380.546	71.731	152.102
386.081	71.652	152.207
391.697	71.576	152.330
397.395	71.499	152.449
403.175	71.413	152.625
409.039	71.347	152.815
414.989	71.258	152.869
421.025	71.166	153.031
427.149	71.080	153.248
433.362	71.029	153.668
439.665	70.962	153.786
446.060	70.883	154.050
452.548	70.825	154.435
459.131	70.826	154.345
465.809	70.699	154.303
472.584	70.614	154.524
479.458	70.526	154.878
486.432	70.486	155.178
493.507	70.358	155.021
500.686	70.269	155.669
507.968	70.215	156.084
515.357	70.151	156.324
522.853	70.082	156.603
530.458	69.958	156.893
538.174	69.921	157.540
546.002	69.838	157.731
553.943	69.774	158.317
562.001	69.719	158.777
570.175	69.659	159.095
578.469	69.574	159.520
586.883	69.543	160.051
595.419	69.415	160.430
604.080	69.370	161.104
612.866	69.329	161.688
621.780	69.291	162.038
630.824	69.153	162.570
640.000	69.175	163.481
649.309	69.095	164.008
658.753	69.030	164.792
668.335	69.093	165.622
678.056	69.057	165.887
687.919	69.023	166.536
697.925	68.969	166.908
708.076	68.919	167.656
718.376	68.906	168.315
728.825	68.871	168.956
739.426	68.848	169.665
750.181	68.824	170.364
761.093	68.804	171.098
772.163	68.780	171.859
783.394	68.779	172.744
794.789	68.777	173.378
806.349	68.757	174.334
818.078	68.794	175.141
829.977	68.832	176.365
842.050	68.912	176.490
854.297	68.908	177.152
866.724	68.978	177.488
879.330	68.937	178.452
892.120	68.992	179.174
905.097	69.013	179.650
918.262	69.096	-179.457
931.618	69.129	-178.695
945.169	69.233	-178.100
958.917	69.287	-177.466
972.864	69.342	-177.145
987.015	69.444	-176.521
1001.371	69.562	-176.470
1015.937	69.637	-175.762
1030.714	69.700	-175.587
1045.706	69.876	-175.013
1060.916	69.993	-175.267
1076.347	70.102	-175.799
1092.003	70.204	-176.160
1107.887	70.272	-176.987
1124.001	70.330	-178.046
1140.350	70.303	-179.337
1156.937	70.140	179.337
1173.765	69.873	177.940
1190.838	69.432	177.659
1208.159	69.008	179.120
1225.732	68.605	-179.212
1243.561	68.394	-176.259
1261.649	68.300	-172.611
1280.000	68.376	-169.947
1298.618	68.534	-167.293
1317.507	68.756	-165.104
1336.670	68.981	-163.531
1356.113	69.188	-162.499
1375.838	69.442	-161.648
1395.850	69.578	-160.731
1416.153	69.730	-159.210
1436.751	69.992	-158.693
1457.649	70.198	-158.355
1478.851	70.406	-157.790
1500.362	70.615	-157.337
1522.185	70.829	-156.903
1544.326	71.071	-156.421
1566.789	71.280	-155.921
1589.578	71.592	-155.016
1612.699	71.816	-154.393
1636.156	71.877	-154.460
1659.955	71.824	-154.297
1684.099	71.735	-153.931
1708.595	71.701	-153.485
1733.447	71.735	-153.326
1758.661	71.816	-153.236
1784.241	71.965	-153.026
1810.193	72.204	-151.922
1836.523	72.431	-151.663
1863.236	72.665	-151.340
1890.338	72.898	-151.179
1917.833	73.131	-150.918
1945.729	73.316	-150.913
1974.030	73.598	-150.196
2002.743	73.843	-150.249
2031.873	74.109	-150.375
2061.428	74.320	-150.317
2091.412	74.610	-150.340
2121.832	74.823	-150.479
2152.695	75.029	-151.208
2184.007	75.187	-151.084
2215.774	75.446	-151.255
2248.003	75.707	-151.685
2280.701	75.936	-152.307
2313.874	76.169	-153.024
2347.530	76.373	-153.131
2381.676	76.607	-153.939
2416.318	76.860	-154.577
2451.464	77.091	-155.642
2487.122	77.282	-156.536
2523.298	77.535	-157.564
2560.000	77.680	-158.507
2597.236	77.954	-159.376
2635.014	78.224	-160.893
2673.341	78.456	-162.769
2712.226	78.543	-164.950
2751.676	78.696	-166.808
2791.700	78.771	-168.621
2832.306	78.809	-170.864
2873.503	78.836	-172.418
2915.299	78.828	-175.169
2957.703	78.777	-176.581
3000.724	78.685	-178.139
3044.370	78.581	-179.687
3088.652	78.416	178.569
3133.577	78.278	177.662
3179.156	78.176	176.992
3225.398	78.051	176.318
3272.312	77.976	175.891
3319.909	77.819	175.084
3368.198	77.712	174.897
3417.190	77.621	174.892
3466.894	77.521	174.525
3517.321	77.394	174.835
3568.482	77.308	175.356
3620.387	77.237	175.806
3673.046	77.302	176.020
3726.472	77.263	176.266
3780.675	77.288	176.599
3835.666	77.378	176.496
3891.457	77.415	176.563
3948.060	77.465	177.034
4005.486	77.562	177.585
4063.747	77.729	177.305
4122.855	77.793	177.702
4182.824	77.908	178.230
4243.664	78.031	177.814
4305.390	78.108	177.898
4368.013	78.160	177.157
4431.547	78.256	178.630
4496.005	78.519	177.921
4561.401	78.811	177.131
4627.749	79.108	174.873
4695.061	79.243	172.343
4763.352	79.334	169.866
4832.637	79.457	167.395
4902.929	79.476	164.081
4974.244	79.449	160.907
5046.596	79.328	157.043
5120.000	79.120	153.658
5194.472	78.737	151.237
5270.027	78.327	148.712
5346.682	77.858	147.063
5424.451	77.382	145.305
5503.352	76.806	144.115
5583.399	76.167	144.077
5664.612	75.582	143.941
5747.006	74.974	144.516
5830.598	74.405	145.237
5915.406	73.819	145.960
6001.447	73.331	147.658
6088.740	72.787	149.432
6177.303	72.384	151.489
6267.154	72.010	153.801
6358.312	71.566	156.222
6450.796	71.217	158.750
6544.625	70.918	162.111
6639.818	70.685	165.173
6736.397	70.405	168.239
6834.380	70.207	171.398
6933.789	70.060	175.162
7034.643	70.014	178.698
7136.964	69.925	-177.490
7240.773	69.874	-173.920
7346.093	69.890	-169.897
7452.944	70.025	-166.255
7561.350	70.196	-162.208
7671.332	70.315	-158.576
7782.915	70.641	-154.604
7896.120	70.898	-151.187
8010.971	71.289	-148.169
8127.493	71.643	-144.412
8245.711	72.289	-141.482
8365.647	73.023	-138.991
8487.328	73.821	-137.488
8610.779	74.815	-136.100
8736.026	75.991	-136.355
8863.095	77.275	-139.242
8992.011	78.599	-144.118
9122.803	79.801	-152.780
9255.497	80.485	-165.666
9390.121	80.318	-178.568
9526.704	79.558	170.865
9665.273	78.441	162.763
9805.857	77.348	157.936
9948.487	76.335	155.624
10093.191	75.494	153.340
10240.000	74.756	151.673
10388.944	74.220	150.052
10540.055	73.543	147.235
10693.363	72.833	144.002
10848.902	71.923	140.132
11006.703	70.793	136.345
11166.799	69.641	134.240
11329.224	68.273	132.030
11494.012	66.665	131.627
11661.195	65.135	132.161
11830.812	63.491	133.883
12002.895	61.938	139.174
12177.480	60.642	142.565
12354.606	59.154	148.467
12534.309	57.922	155.682
12716.624	56.842	163.948
12901.592	56.035	171.269
13089.250	55.087	178.850
13279.637	54.374	-173.279
13472.794	53.594	-165.526
13668.760	52.876	-156.918
13867.577	52.014	-148.559
14069.285	51.268	-139.217
14273.928	50.795	-129.916
14481.547	50.528	-119.808
14692.186	50.595	-110.446
14905.889	50.761	-100.263
15122.700	51.049	-90.913
15342.664	51.485	-80.760
15565.829	51.967	-71.266
15792.239	52.494	-62.046
16021.942	53.159	-54.228
16254.986	54.485	-48.104
16491.422	56.546	-47.030
16731.295	59.488	-56.224
16974.656	60.613	-80.351
17221.559	58.456	-100.880
17472.053	55.681	-105.618
17726.189	53.538	-103.038
17984.021	52.116	-96.596
18245.605	51.454	-89.626
18510.994	51.578	-86.322
18780.242	52.249	-90.574
19053.408	51.731	-110.630
19330.547	47.392	-129.204
19611.715	42.061	-129.260
19896.975	36.968	-118.744
