* Measurement data measured by REW V5.19
* Source: Mic in at front panel (Pink) (Realtek(R) Audio), no input selected, L, volume: no control
* Format: 256k Log Swept Sine, 1 sweep at -12.0 dBFS  With no timing reference
* Dated: Jun 24, 2021 5:47:29 PM
* REW Settings:
*  C-weighting compensation: Off
*  Target level: 75.0 dB
* Note: Yinyoo Ash
* Measurement: Jun 24 17:47:29
* Smoothing: None
* Frequency Step: 1/48 octave
* Start Frequency: 20.3 Hz
*
* Freq(Hz)	SPL(dB)	Phase(degrees)
20.291	77.001	38.459
20.586	77.047	37.811
20.885	77.091	37.225
21.189	77.107	36.632
21.497	77.122	36.031
21.810	77.148	35.426
22.127	77.171	34.820
22.449	77.187	34.211
22.776	77.209	33.588
23.107	77.239	32.939
23.443	77.264	32.254
23.784	77.290	31.536
24.130	77.318	30.801
24.481	77.349	30.064
24.837	77.374	29.336
25.198	77.385	28.620
25.565	77.406	27.911
25.937	77.436	27.208
26.314	77.461	26.517
26.697	77.492	25.844
27.085	77.514	25.195
27.479	77.522	24.565
27.879	77.542	23.945
28.284	77.552	23.327
28.696	77.564	22.714
29.113	77.585	22.115
29.537	77.593	21.537
29.966	77.600	20.974
30.402	77.604	20.406
30.844	77.616	19.813
31.293	77.640	19.190
31.748	77.654	18.547
32.210	77.660	17.897
32.678	77.643	17.244
33.154	77.642	16.586
33.636	77.653	15.922
34.125	77.654	15.266
34.621	77.658	14.627
35.125	77.664	13.998
35.636	77.673	13.369
36.154	77.689	12.739
36.680	77.706	12.127
37.214	77.718	11.540
37.755	77.717	10.966
38.304	77.706	10.384
38.861	77.695	9.789
39.427	77.660	9.190
40.000	77.620	8.601
40.582	77.612	8.030
41.172	77.604	7.467
41.771	77.591	6.889
42.379	77.579	6.288
42.995	77.578	5.694
43.620	77.581	5.126
44.255	77.579	4.561
44.898	77.568	3.976
45.552	77.548	3.406
46.214	77.536	2.877
46.886	77.526	2.357
47.568	77.508	1.807
48.260	77.484	1.239
48.962	77.442	0.677
49.674	77.389	0.126
50.397	77.359	-0.406
51.130	77.344	-0.914
51.874	77.337	-1.423
52.628	77.324	-1.954
53.394	77.287	-2.467
54.170	77.262	-2.942
54.958	77.261	-3.465
55.758	77.244	-4.033
56.569	77.218	-4.522
57.391	77.202	-5.000
58.226	77.171	-5.565
59.073	77.127	-6.090
59.932	77.097	-6.552
60.804	77.066	-7.064
61.688	77.023	-7.609
62.586	76.985	-8.123
63.496	76.962	-8.616
64.420	76.935	-9.126
65.357	76.895	-9.627
66.307	76.852	-10.121
67.272	76.815	-10.626
68.250	76.779	-11.102
69.243	76.740	-11.565
70.250	76.694	-12.043
71.272	76.642	-12.485
72.309	76.588	-12.954
73.360	76.541	-13.361
74.427	76.527	-13.819
75.510	76.482	-14.302
76.608	76.436	-14.626
77.723	76.401	-15.152
78.853	76.346	-15.621
80.000	76.307	-16.110
81.164	76.250	-16.746
82.344	76.186	-17.166
83.542	76.149	-17.691
84.757	76.097	-18.256
85.990	76.033	-18.661
87.241	75.962	-19.068
88.510	75.882	-19.401
89.797	75.784	-19.782
91.103	75.703	-20.071
92.428	75.639	-20.482
93.773	75.585	-20.786
95.137	75.539	-21.186
96.520	75.467	-21.344
97.924	75.411	-21.694
99.349	75.294	-22.019
100.794	75.172	-22.701
102.260	75.077	-22.824
103.747	75.042	-23.224
105.256	75.040	-23.097
106.787	74.980	-23.063
108.340	74.899	-23.266
109.916	74.778	-23.658
111.515	74.704	-24.845
113.137	74.723	-24.498
114.783	74.632	-24.229
116.452	74.456	-24.536
118.146	74.425	-24.209
119.865	73.345	-13.060
121.608	74.381	-24.100
123.377	74.360	-23.748
125.171	74.151	-25.589
126.992	74.122	-26.734
128.839	74.054	-25.950
130.713	73.998	-26.027
132.615	73.724	-26.635
134.543	73.823	-26.383
136.500	73.662	-26.592
138.486	73.533	-27.297
140.500	73.355	-27.466
142.544	73.317	-27.327
144.617	73.173	-26.973
146.721	73.055	-26.193
148.855	72.807	-23.857
151.020	72.875	-24.894
153.217	72.826	-22.376
155.445	73.240	-23.996
157.706	73.590	-22.990
160.000	72.237	-25.023
162.327	73.075	-24.911
164.688	73.395	-26.359
167.084	73.379	-26.052
169.514	73.098	-26.536
171.980	72.953	-27.763
174.481	72.897	-28.133
177.019	72.742	-28.148
179.594	72.578	-28.388
182.206	72.504	-28.846
184.856	72.490	-28.928
187.545	72.380	-29.390
190.273	72.329	-29.550
193.041	72.198	-29.511
195.849	72.172	-29.776
198.697	72.062	-29.855
201.587	71.928	-29.873
204.520	71.836	-29.862
207.494	71.771	-29.766
210.512	71.659	-29.780
213.574	71.545	-29.882
216.681	71.431	-29.928
219.833	71.292	-29.674
223.030	71.213	-29.441
226.274	71.112	-29.251
229.565	71.012	-29.154
232.905	70.926	-28.899
236.292	70.846	-28.529
239.729	70.751	-28.094
243.216	70.776	-28.186
246.754	70.665	-28.230
250.343	70.594	-28.119
253.984	70.489	-28.129
257.678	70.409	-27.733
261.426	70.362	-27.650
265.229	70.268	-27.776
269.087	70.165	-27.664
273.001	70.057	-27.428
276.972	69.970	-27.165
281.000	69.865	-26.917
285.088	69.783	-26.571
289.234	69.750	-26.171
293.441	69.701	-26.284
297.710	69.591	-26.229
302.040	69.491	-26.052
306.433	69.412	-25.780
310.890	69.340	-25.487
315.412	69.259	-25.283
320.000	69.127	-25.122
324.655	69.056	-24.730
329.377	68.967	-24.298
334.168	68.877	-23.930
339.028	68.801	-23.551
343.959	68.705	-23.316
348.962	68.608	-22.919
354.038	68.544	-22.541
359.188	68.475	-22.139
364.412	68.390	-21.740
369.713	68.294	-21.328
375.090	68.203	-20.876
380.546	68.135	-20.437
386.081	68.054	-19.968
391.697	67.980	-19.499
397.395	67.908	-19.009
403.175	67.824	-18.492
409.039	67.763	-17.961
414.989	67.676	-17.551
421.025	67.589	-17.024
427.149	67.508	-16.459
433.362	67.463	-15.708
439.665	67.404	-15.231
446.060	67.330	-14.628
452.548	67.279	-13.882
459.131	67.287	-13.600
465.809	67.171	-13.291
472.584	67.093	-12.709
479.458	67.015	-12.027
486.432	66.984	-11.362
493.507	66.866	-11.141
500.686	66.790	-10.144
507.968	66.747	-9.372
515.357	66.696	-8.773
522.853	66.640	-8.138
530.458	66.526	-7.492
538.174	66.507	-6.511
546.002	66.436	-5.919
553.943	66.387	-4.970
562.001	66.351	-4.164
570.175	66.305	-3.488
578.469	66.235	-2.694
586.883	66.223	-1.795
595.419	66.111	-1.048
604.080	66.082	-0.027
612.866	66.060	0.930
621.780	66.043	1.646
630.824	65.926	2.558
640.000	65.970	3.806
649.309	65.908	4.718
658.753	65.865	5.876
668.335	65.950	7.084
678.056	65.939	7.712
687.919	65.927	8.729
697.925	65.895	9.485
708.076	65.874	10.606
718.376	65.885	11.662
728.825	65.876	12.686
739.426	65.879	13.760
750.181	65.880	14.856
761.093	65.887	15.987
772.163	65.895	17.122
783.394	65.923	18.390
794.789	65.950	19.409
806.349	65.956	20.786
818.078	66.026	21.973
829.977	66.096	23.630
842.050	66.205	24.169
854.297	66.242	25.258
866.724	66.346	26.003
879.330	66.346	27.450
892.120	66.457	28.575
905.097	66.510	29.391
918.262	66.627	30.690
931.618	66.702	31.906
945.169	66.853	32.895
958.917	66.957	33.861
972.864	67.064	34.306
987.015	67.127	34.739
1001.371	67.111	35.786
1015.937	67.217	37.899
1030.714	67.346	39.068
1045.706	67.589	40.532
1060.916	67.764	41.233
1076.347	67.934	41.755
1092.003	68.107	42.583
1107.887	68.270	43.167
1124.001	68.459	43.757
1140.350	68.633	44.339
1156.937	68.776	44.993
1173.765	68.952	45.305
1190.838	69.096	45.969
1208.159	69.325	46.953
1225.732	69.506	46.640
1243.561	69.700	46.668
1261.649	69.818	47.167
1280.000	69.946	47.021
1298.618	70.060	47.508
1317.507	70.186	48.078
1336.670	70.314	48.571
1356.113	70.427	48.891
1375.838	70.606	49.321
1395.850	70.696	50.045
1416.153	70.822	51.476
1436.751	71.082	51.979
1457.649	71.310	52.354
1478.851	71.561	52.959
1500.362	71.825	53.421
1522.185	72.116	53.823
1544.326	72.448	54.259
1566.789	72.761	54.618
1589.578	73.186	55.324
1612.699	73.536	55.658
1636.156	73.733	55.202
1659.955	73.818	54.861
1684.099	73.874	54.651
1708.595	73.991	54.370
1733.447	74.180	53.669
1758.661	74.417	52.772
1784.241	74.724	51.824
1810.193	75.117	51.598
1836.523	75.491	50.333
1863.236	75.866	48.925
1890.338	76.221	47.156
1917.833	76.555	45.241
1945.729	76.814	42.878
1974.030	77.131	40.988
2002.743	77.372	38.146
2031.873	77.580	35.117
2061.428	77.677	32.129
2091.412	77.789	29.064
2121.832	77.758	25.919
2152.695	77.659	22.298
2184.007	77.446	19.732
2215.774	77.281	17.153
2248.003	77.069	14.622
2280.701	76.785	12.266
2313.874	76.477	10.214
2347.530	76.117	9.149
2381.676	75.779	7.802
2416.318	75.451	7.008
2451.464	75.106	6.177
2487.122	74.726	5.868
2523.298	74.417	5.788
2560.000	74.013	6.194
2597.236	73.771	7.104
2635.014	73.574	7.691
2673.341	73.394	8.089
2712.226	73.103	8.280
2751.676	72.912	8.910
2791.700	72.679	9.741
2832.306	72.447	10.248
2873.503	72.241	11.511
2915.299	72.036	11.637
2957.703	71.829	13.170
3000.724	71.621	14.596
3044.370	71.450	16.019
3088.652	71.264	17.134
3133.577	71.137	18.925
3179.156	71.077	20.799
3225.398	71.009	22.516
3272.312	71.005	24.337
3319.909	70.934	25.666
3368.198	70.923	27.531
3417.190	70.940	29.427
3466.894	70.952	30.861
3517.321	70.944	32.876
3568.482	70.977	35.047
3620.387	71.022	37.131
3673.046	71.213	39.004
3726.472	71.308	40.967
3780.675	71.489	43.040
3835.666	71.774	44.756
3891.457	72.053	46.577
3948.060	72.397	48.660
4005.486	72.847	50.559
4063.747	73.421	51.149
4122.855	73.921	51.819
4182.824	74.492	51.913
4243.664	75.044	50.162
4305.390	75.465	48.046
4368.013	75.752	44.543
4431.547	75.898	41.673
4496.005	75.835	38.129
4561.401	75.677	35.695
4627.749	75.573	33.105
4695.061	75.331	30.787
4763.352	75.056	29.033
4832.637	74.826	27.883
4902.929	74.517	26.483
4974.244	74.218	25.849
5046.596	73.898	25.025
5120.000	73.587	25.031
5194.472	73.198	26.187
5270.027	72.877	27.262
5346.682	72.581	29.173
5424.451	72.362	30.894
5503.352	72.109	33.043
5583.399	71.867	36.245
5664.612	71.757	39.174
5747.006	71.707	42.596
5830.598	71.788	45.950
5915.406	71.939	48.962
6001.447	72.300	52.573
6088.740	72.732	55.732
6177.303	73.440	58.354
6267.154	74.329	59.963
6358.312	75.281	59.999
6450.796	76.421	57.602
6544.625	77.560	52.732
6639.818	78.420	43.828
6736.397	78.531	32.583
6834.380	77.922	22.209
6933.789	76.852	15.525
7034.643	75.708	11.895
7136.964	74.552	11.225
7240.773	73.542	12.076
7346.093	72.733	14.591
7452.944	72.165	17.475
7561.350	71.742	21.335
7671.332	71.370	25.099
7782.915	71.310	29.393
7896.120	71.281	33.276
8010.971	71.481	36.674
8127.493	71.749	40.741
8245.711	72.415	43.569
8365.647	73.286	45.412
8487.328	74.336	45.240
8610.779	75.693	43.145
8736.026	77.201	36.231
8863.095	78.370	22.454
8992.011	78.397	5.131
9122.803	77.152	-9.877
9255.497	75.328	-19.444
9390.121	73.452	-22.965
9526.704	71.870	-23.171
9665.273	70.483	-22.247
9805.857	69.362	-19.616
9948.487	68.437	-15.660
10093.191	67.715	-12.000
10240.000	67.158	-7.786
10388.944	66.890	-3.022
10540.055	66.638	1.110
10693.363	66.531	5.482
10848.902	66.589	9.566
11006.703	66.762	13.137
11166.799	67.298	17.481
11329.224	67.960	20.009
11494.012	68.687	22.346
11661.195	69.782	22.798
11830.812	71.038	21.254
12002.895	72.418	17.080
12177.480	73.651	8.878
12354.606	74.587	-1.470
12534.309	75.039	-15.122
12716.624	74.685	-27.226
12901.592	74.071	-37.286
13089.250	73.243	-44.916
13279.637	72.722	-51.365
13472.794	72.169	-58.466
13668.760	71.574	-66.529
13867.577	70.537	-76.224
14069.285	69.039	-85.859
14273.928	67.304	-93.986
14481.547	65.300	-98.891
14692.186	63.416	-102.055
14905.889	61.487	-101.619
15122.700	59.576	-100.249
15342.664	57.762	-96.378
15565.829	55.798	-91.735
15792.239	53.440	-85.877
16021.942	50.610	-78.639
16254.986	47.283	-67.248
16491.422	42.529	-41.881
16731.295	43.206	32.936
16974.656	52.128	58.044
17221.559	58.513	43.245
17472.053	60.307	16.298
17726.189	59.182	2.191
17984.021	57.142	0.410
18245.605	52.395	30.606
18510.994	65.447	74.932
18780.242	69.797	21.544
19053.408	69.851	-13.571
19330.547	67.436	-42.279
19611.715	63.942	-54.882
19896.975	61.059	-57.466
